Time	ECG	Heart Rate
0	0	87.5912
0.005	0	87.5912
0.01	0	87.5912
0.015	0	87.5912
0.02	0	87.5912
0.025	0	87.5912
0.03	0	87.5912
0.035	0	87.5912
0.04	0	87.5912
0.045	0	87.5912
0.05	0	87.5912
0.055	0	87.5912
0.06	0	87.5912
0.065	0	87.5912
0.07	0	87.5912
0.075	0	87.5912
0.08	0	87.5912
0.085	0	87.5912
0.09	0	87.5912
0.095	0	87.5912
0.1	0	87.5912
0.105	0	87.5912
0.11	0	87.5912
0.115	0	87.5912
0.12	0	87.5912
0.125	0	87.5912
0.13	0	87.5912
0.135	0	87.5912
0.14	0	87.5912
0.145	0	87.5912
0.15	0	87.5912
0.155	0	87.5912
0.16	0	87.5912
0.165	0	87.5912
0.17	0	87.5912
0.175	0	87.5912
0.18	0	87.5912
0.185	0	87.5912
0.19	0	87.5912
0.195	0	87.5912
0.2	0	87.5912
0.205	0	87.5912
0.21	0	87.5912
0.215	0	87.5912
0.22	0	87.5912
0.225	0	87.5912
0.23	0	87.5912
0.235	0	87.5912
0.24	0	87.5912
0.245	0	87.5912
0.25	0	87.5912
0.255	0	87.5912
0.26	0	87.5912
0.265	0	87.5912
0.27	0	87.5912
0.275	0	87.5912
0.28	0	87.5912
0.285	0	87.5912
0.29	0	87.5912
0.295	0	87.5912
0.3	0	87.5912
0.305	0	87.5912
0.31	0	87.5912
0.315	0	87.5912
0.32	0	87.5912
0.325	0	87.5912
0.33	0	87.5912
0.335	0	87.5912
0.34	0	87.5912
0.345	0	87.5912
0.35	0	87.5912
0.355	0	87.5912
0.36	0	87.5912
0.365	0	87.5912
0.37	0	87.5912
0.375	0	87.5912
0.38	0	87.5912
0.385	0	87.5912
0.39	0	87.5912
0.395	0	87.5912
0.4	0	87.5912
0.405	0	87.5912
0.41	0	87.5912
0.415	0	87.5912
0.42	0	87.5912
0.425	0	87.5912
0.43	0	87.5912
0.435	0	87.5912
0.44	0	87.5912
0.445	0	87.5912
0.45	0	87.5912
0.455	0	87.5912
0.46	0	87.5912
0.465	0	87.5912
0.47	0	87.5912
0.475	0	87.5912
0.48	0	87.5912
0.485	0	87.5912
0.49	0	87.5912
0.495	0	87.5912
0.5	0	87.5912
0.505	0	87.5912
0.51	0	87.5912
0.515	0	87.5912
0.52	0	87.5912
0.525	0	87.5912
0.53	0	87.5912
0.535	0	87.5912
0.54	0	87.5912
0.545	0	87.5912
0.55	0	87.5912
0.555	0	87.5912
0.56	0	87.5912
0.565	0	87.5912
0.57	0	87.5912
0.575	0	87.5912
0.58	0	87.5912
0.585	0	87.5912
0.59	0	87.5912
0.595	0	87.5912
0.6	0	87.5912
0.605	0	87.5912
0.61	0	87.5912
0.615	0	87.5912
0.62	0	87.5912
0.625	0	87.5912
0.63	0	87.5912
0.635	0	87.5912
0.64	0	87.5912
0.645	0	87.5912
0.65	0	87.5912
0.655	0	87.5912
0.66	0	87.5912
0.665	0	87.5912
0.67	0	87.5912
0.675	0	87.5912
0.68	0	87.5912
0.685	0	87.5912
0.69	0	87.5912
0.695	0	87.5912
0.7	0	87.5912
0.705	0	87.5912
0.71	0	87.5912
0.715	0	87.5912
0.72	0	87.5912
0.725	0	87.5912
0.73	0	87.5912
0.735	0	87.5912
0.74	0	87.5912
0.745	0	87.5912
0.75	0	87.5912
0.755	0	87.5912
0.76	0	87.5912
0.765	0	87.5912
0.77	0	87.5912
0.775	0	87.5912
0.78	0	87.5912
0.785	0	87.5912
0.79	0	87.5912
0.795	0	87.5912
0.8	0	87.5912
0.805	0	87.5912
0.81	0	87.5912
0.815	0	87.5912
0.82	0	87.5912
0.825	0	87.5912
0.83	0	87.5912
0.835	0	87.5912
0.84	0	87.5912
0.845	0	87.5912
0.85	0	87.5912
0.855	0	87.5912
0.86	0	87.5912
0.865	0	87.5912
0.87	0	87.5912
0.875	0	87.5912
0.88	0	87.5912
0.885	0	87.5912
0.89	0	87.5912
0.895	0	87.5912
0.9	0	87.5912
0.905	0	87.5912
0.91	0	87.5912
0.915	0	87.5912
0.92	0	87.5912
0.925	0	87.5912
0.93	0	87.5912
0.935	0	87.5912
0.94	0	87.5912
0.945	0	87.5912
0.95	0	87.5912
0.955	0	87.5912
0.96	0	87.5912
0.965	0	87.5912
0.97	0	87.5912
0.975	0	87.5912
0.98	0	87.5912
0.985	0	87.5912
0.99	0	87.5912
0.995	0	87.5912
1	0	87.5912
1.005	0	87.5912
1.01	0	87.5912
1.015	0	87.5912
1.02	0	87.5912
1.025	0	87.5912
1.03	0	87.5912
1.035	0	87.5912
1.04	0	87.5912
1.045	0	87.5912
1.05	0	87.5912
1.055	0	87.5912
1.06	0	87.5912
1.065	0	87.5912
1.07	0	87.5912
1.075	0	87.5912
1.08	0	87.5912
1.085	0	87.5912
1.09	0	87.5912
1.095	0	87.5912
1.1	0	87.5912
1.105	0	87.5912
1.11	0	87.5912
1.115	0	87.5912
1.12	0	87.5912
1.125	0	87.5912
1.13	0	87.5912
1.135	0	87.5912
1.14	0	87.5912
1.145	0	87.5912
1.15	0	87.5912
1.155	0	87.5912
1.16	0	87.5912
1.165	0	87.5912
1.17	0	87.5912
1.175	0	87.5912
1.18	0	87.5912
1.185	0	87.5912
1.19	0	87.5912
1.195	0	87.5912
1.2	0	87.5912
1.205	0	87.5912
1.21	0	87.5912
1.215	0	87.5912
1.22	0	87.5912
1.225	0	87.5912
1.23	0	87.5912
1.235	0	87.5912
1.24	0	87.5912
1.245	0	87.5912
1.25	0	87.5912
1.255	0	87.5912
1.26	0	87.5912
1.265	0	87.5912
1.27	0	87.5912
1.275	0	87.5912
1.28	0	87.5912
1.285	0	87.5912
1.29	0	87.5912
1.295	0	87.5912
1.3	0	87.5912
1.305	0	87.5912
1.31	0	87.5912
1.315	0	87.5912
1.32	0	87.5912
1.325	0	87.5912
1.33	0	87.5912
1.335	0	87.5912
1.34	0	87.5912
1.345	0	87.5912
1.35	0	87.5912
1.355	0	87.5912
1.36	0	87.5912
1.365	0	87.5912
1.37	0	87.5912
1.375	0	87.5912
1.38	0	87.5912
1.385	0	87.5912
1.39	0	87.5912
1.395	0	87.5912
1.4	0	87.5912
1.405	0	87.5912
1.41	0	87.5912
1.415	0	87.5912
1.42	0	87.5912
1.425	-5.64146e-08	87.5912
1.43	-5.72039e-05	87.5912
1.435	-0.000583404	87.5912
1.44	-0.000574578	87.5912
1.445	0.00253787	87.5912
1.45	0.00707231	87.5912
1.455	0.010244	87.5912
1.46	0.0145899	87.5912
1.465	0.0223267	87.5912
1.47	0.0323728	87.5912
1.475	0.0463658	87.5912
1.48	0.0654772	87.5912
1.485	0.0864576	87.5912
1.49	0.109092	87.5912
1.495	0.13575	87.5912
1.5	0.161827	87.5912
1.505	0.179517	87.5912
1.51	0.185846	87.5912
1.515	0.180331	87.5912
1.52	0.163412	87.5912
1.525	0.141007	87.5912
1.53	0.117855	87.5912
1.535	0.0930486	87.5912
1.54	0.068249	87.5912
1.545	0.0479074	87.5912
1.55	0.0318355	87.5912
1.555	0.018134	87.5912
1.56	0.00870372	87.5912
1.565	0.00357385	87.5912
1.57	-0.00154154	87.5912
1.575	-0.00732843	87.5912
1.58	-0.0112306	87.5912
1.585	-0.0151391	87.5912
1.59	-0.023547	87.5912
1.595	-0.0346952	87.5912
1.6	-0.0381955	87.5912
1.605	-0.0123949	87.5912
1.61	0.0721452	87.5912
1.615	0.234822	87.5912
1.62	0.468809	87.5912
1.625	0.724991	87.5912
1.63	0.927451	87.5912
1.635	1.02028	87.5912
1.64	0.993392	87.5912
1.645	0.874548	87.5912
1.65	0.704911	87.5912
1.655	0.523728	87.5912
1.66	0.362127	87.5912
1.665	0.235296	87.5912
1.67	0.142811	87.5912
1.675	0.0806846	87.5912
1.68	0.0441633	87.5912
1.685	0.0242185	87.5912
1.69	0.0138619	87.5912
1.695	0.0109925	87.5912
1.7	0.0121185	87.5912
1.705	0.0134379	87.5912
1.71	0.0155342	87.5912
1.715	0.0184347	87.5912
1.72	0.0194856	87.5912
1.725	0.0199435	87.5912
1.73	0.0225493	87.5912
1.735	0.0259298	87.5912
1.74	0.0293822	87.5912
1.745	0.035463	87.5912
1.75	0.0442017	87.5912
1.755	0.0545623	87.5912
1.76	0.0679673	87.5912
1.765	0.081839	87.5912
1.77	0.0898028	87.5912
1.775	0.0906963	87.5912
1.78	0.0879494	87.5912
1.785	0.083135	87.5912
1.79	0.079107	87.5912
1.795	0.0809492	87.5912
1.8	0.0892129	87.5912
1.805	0.101992	87.5912
1.81	0.119447	87.5912
1.815	0.140318	87.5912
1.82	0.161428	87.5912
1.825	0.18423	87.5912
1.83	0.211552	87.5912
1.835	0.241234	87.5912
1.84	0.271426	87.5912
1.845	0.302769	87.5912
1.85	0.333418	87.5912
1.855	0.360853	87.5912
1.86	0.385635	87.5912
1.865	0.406317	87.5912
1.87	0.418768	87.5912
1.875	0.423741	87.5912
1.88	0.424483	87.5912
1.885	0.419058	87.5912
1.89	0.404854	87.5912
1.895	0.383961	87.5912
1.9	0.357807	87.5912
1.905	0.326477	87.5912
1.91	0.293569	87.5912
1.915	0.261878	87.5912
1.92	0.230405	87.5912
1.925	0.200701	87.5912
1.93	0.176315	87.5912
1.935	0.156441	87.5912
1.94	0.139949	87.5912
1.945	0.128217	87.5912
1.95	0.11877	87.5912
1.955	0.108248	87.5912
1.96	0.0987254	87.5912
1.965	0.0919327	87.5912
1.97	0.0856077	87.5912
1.975	0.0800272	87.5912
1.98	0.0774336	87.5912
1.985	0.0765796	87.5912
1.99	0.0767898	87.5912
1.995	0.0802992	87.5912
2	0.085809	87.5912
2.005	0.0892709	87.5912
2.01	0.0897141	87.5912
2.015	0.0875511	87.5912
2.02	0.0824937	87.5912
2.025	0.0779741	87.5912
2.03	0.0772287	87.5912
2.035	0.075817	87.5912
2.04	0.0702489	87.5912
2.045	0.06356	87.5912
2.05	0.0571807	87.5912
2.055	0.0503759	87.5912
2.06	0.0453412	87.5912
2.065	0.0426062	87.5912
2.07	0.039449	87.5912
2.075	0.036206	87.5912
2.08	0.0344496	87.5912
2.085	0.0320104	87.5912
2.09	0.0281702	87.5912
2.095	0.0253485	87.5912
2.1	0.022777	87.5912
2.105	0.019097	87.5912
2.11	0.0177092	87.5912
2.115	0.020242	87.5912
2.12	0.0226884	87.5912
2.125	0.022258	87.5912
2.13	0.0196444	87.5912
2.135	0.0153732	87.5912
2.14	0.0116041	87.5912
2.145	0.0118972	87.5912
2.15	0.0164609	87.5912
2.155	0.0248196	87.5912
2.16	0.0384891	87.5912
2.165	0.0561492	87.5912
2.17	0.0747988	87.5912
2.175	0.0958178	87.5912
2.18	0.118845	87.5912
2.185	0.137132	87.5912
2.19	0.14575	87.5912
2.195	0.145479	87.5912
2.2	0.137096	87.5912
2.205	0.120718	87.5912
2.21	0.100119	87.5912
2.215	0.0774756	87.5912
2.22	0.0512122	87.5912
2.225	0.0237843	87.5912
2.23	0.00113442	87.5912
2.235	-0.0161787	87.5912
2.24	-0.0313609	87.5912
2.245	-0.0447797	87.5912
2.25	-0.0573414	87.5912
2.255	-0.070739	87.5912
2.26	-0.0810666	87.5912
2.265	-0.0852314	87.5912
2.27	-0.0876521	87.5912
2.275	-0.0928466	87.5912
2.28	-0.0984144	87.5912
2.285	-0.0940706	87.5912
2.29	-0.0555884	87.5912
2.295	0.0479962	87.5912
2.3	0.232499	87.5912
2.305	0.482099	87.5912
2.31	0.73717	87.5912
2.315	0.917797	87.5912
2.32	0.973409	85.7143
2.325	0.906932	85.7143
2.33	0.757755	85.7143
2.335	0.571574	85.7143
2.34	0.387236	85.7143
2.345	0.232153	85.7143
2.35	0.115894	85.7143
2.355	0.0352468	85.7143
2.36	-0.0150061	85.7143
2.365	-0.0424717	85.7143
2.37	-0.0570995	85.7143
2.375	-0.0635354	85.7143
2.38	-0.0624536	85.7143
2.385	-0.0579286	85.7143
2.39	-0.0550141	85.7143
2.395	-0.0538994	85.7143
2.4	-0.0539441	85.7143
2.405	-0.0555105	85.7143
2.41	-0.0570749	85.7143
2.415	-0.058222	85.7143
2.42	-0.0605112	85.7143
2.425	-0.0619798	85.7143
2.43	-0.0590874	85.7143
2.435	-0.0532138	85.7143
2.44	-0.0465046	85.7143
2.445	-0.0383881	85.7143
2.45	-0.0307672	85.7143
2.455	-0.0258173	85.7143
2.46	-0.0207077	85.7143
2.465	-0.012839	85.7143
2.47	-0.00282993	85.7143
2.475	0.0102743	85.7143
2.48	0.0266671	85.7143
2.485	0.041405	85.7143
2.49	0.0524703	85.7143
2.495	0.0639071	85.7143
2.5	0.0771393	85.7143
2.505	0.0912006	85.7143
2.51	0.108027	85.7143
2.515	0.128944	85.7143
2.52	0.151586	85.7143
2.525	0.17547	85.7143
2.53	0.202063	85.7143
2.535	0.229219	85.7143
2.54	0.254981	85.7143
2.545	0.280545	85.7143
2.55	0.303944	85.7143
2.555	0.321343	85.7143
2.56	0.333537	85.7143
2.565	0.340575	85.7143
2.57	0.337329	85.7143
2.575	0.321847	85.7143
2.58	0.297534	85.7143
2.585	0.266369	85.7143
2.59	0.230346	85.7143
2.595	0.194615	85.7143
2.6	0.161538	85.7143
2.605	0.130474	85.7143
2.61	0.1027	85.7143
2.615	0.078177	85.7143
2.62	0.0541199	85.7143
2.625	0.0320626	85.7143
2.63	0.0170866	85.7143
2.635	0.0086471	85.7143
2.64	0.0032451	85.7143
2.645	0.000519064	85.7143
2.65	-0.00181524	85.7143
2.655	-0.00672543	85.7143
2.66	-0.0115483	85.7143
2.665	-0.0135247	85.7143
2.67	-0.0141786	85.7143
2.675	-0.0133467	85.7143
2.68	-0.00952588	85.7143
2.685	-0.00524609	85.7143
2.69	-0.00305415	85.7143
2.695	-0.00218962	85.7143
2.7	-0.00185854	85.7143
2.705	-0.00154542	85.7143
2.71	-0.00015028	85.7143
2.715	0.000967189	85.7143
2.72	-0.00128067	85.7143
2.725	-0.00524634	85.7143
2.73	-0.00871089	85.7143
2.735	-0.0146466	85.7143
2.74	-0.0240096	85.7143
2.745	-0.0331916	85.7143
2.75	-0.0410494	85.7143
2.755	-0.0481847	85.7143
2.76	-0.0521601	85.7143
2.765	-0.0521612	85.7143
2.77	-0.051152	85.7143
2.775	-0.0491785	85.7143
2.78	-0.0444666	85.7143
2.785	-0.0402661	85.7143
2.79	-0.0398406	85.7143
2.795	-0.0413661	85.7143
2.8	-0.0436279	85.7143
2.805	-0.0463716	85.7143
2.81	-0.0479169	85.7143
2.815	-0.0498539	85.7143
2.82	-0.0561581	85.7143
2.825	-0.0653395	85.7143
2.83	-0.0725507	85.7143
2.835	-0.0767347	85.7143
2.84	-0.0773042	85.7143
2.845	-0.0702528	85.7143
2.85	-0.0547149	85.7143
2.855	-0.0349656	85.7143
2.86	-0.0134708	85.7143
2.865	0.00816394	85.7143
2.87	0.0272672	85.7143
2.875	0.0460999	85.7143
2.88	0.0678958	85.7143
2.885	0.0883345	85.7143
2.89	0.100552	85.7143
2.895	0.102315	85.7143
2.9	0.0923441	85.7143
2.905	0.0702764	85.7143
2.91	0.0414471	85.7143
2.915	0.01108	85.7143
2.92	-0.0200842	85.7143
2.925	-0.0495622	85.7143
2.93	-0.07347	85.7143
2.935	-0.0923746	85.7143
2.94	-0.106955	85.7143
2.945	-0.114354	85.7143
2.95	-0.115454	85.7143
2.955	-0.114774	85.7143
2.96	-0.113521	85.7143
2.965	-0.113169	85.7143
2.97	-0.117951	85.7143
2.975	-0.129252	85.7143
2.98	-0.141802	85.7143
2.985	-0.142994	85.7143
2.99	-0.106916	85.7143
2.995	-0.00261029	85.7143
3	0.18376	85.7143
3.005	0.435236	85.7143
3.01	0.693653	85.7143
3.015	0.880947	85.7143
3.02	0.94752	75.4717
3.025	0.89343	75.4717
3.03	0.754316	75.4717
3.035	0.575058	75.4717
3.04	0.393802	75.4717
3.045	0.23673	75.4717
3.05	0.11389	75.4717
3.055	0.0245805	75.4717
3.06	-0.033489	75.4717
3.065	-0.0666386	75.4717
3.07	-0.0855658	75.4717
3.075	-0.0961314	75.4717
3.08	-0.0996376	75.4717
3.085	-0.0997123	75.4717
3.09	-0.099008	75.4717
3.095	-0.0971342	75.4717
3.1	-0.0957559	75.4717
3.105	-0.0959631	75.4717
3.11	-0.0944917	75.4717
3.115	-0.0910018	75.4717
3.12	-0.089751	75.4717
3.125	-0.090615	75.4717
3.13	-0.0898524	75.4717
3.135	-0.0874483	75.4717
3.14	-0.0837308	75.4717
3.145	-0.0765437	75.4717
3.15	-0.0670302	75.4717
3.155	-0.0583663	75.4717
3.16	-0.0499656	75.4717
3.165	-0.041026	75.4717
3.17	-0.034069	75.4717
3.175	-0.0284042	75.4717
3.18	-0.0198812	75.4717
3.185	-0.00819488	75.4717
3.19	0.00636904	75.4717
3.195	0.0249899	75.4717
3.2	0.0457698	75.4717
3.205	0.065169	75.4717
3.21	0.0841998	75.4717
3.215	0.10516	75.4717
3.22	0.126434	75.4717
3.225	0.14824	75.4717
3.23	0.173105	75.4717
3.235	0.199876	75.4717
3.24	0.226839	75.4717
3.245	0.254291	75.4717
3.25	0.279022	75.4717
3.255	0.29579	75.4717
3.26	0.304498	75.4717
3.265	0.307819	75.4717
3.27	0.305271	75.4717
3.275	0.295249	75.4717
3.28	0.276162	75.4717
3.285	0.245877	75.4717
3.29	0.206435	75.4717
3.295	0.16493	75.4717
3.3	0.125585	75.4717
3.305	0.0894012	75.4717
3.31	0.0599495	75.4717
3.315	0.0390652	75.4717
3.32	0.0231015	75.4717
3.325	0.00997974	75.4717
3.33	0.000665551	75.4717
3.335	-0.00630281	75.4717
3.34	-0.0122361	75.4717
3.345	-0.0148026	75.4717
3.35	-0.0143038	75.4717
3.355	-0.0138253	75.4717
3.36	-0.0125806	75.4717
3.365	-0.00957016	75.4717
3.37	-0.00746305	75.4717
3.375	-0.00600105	75.4717
3.38	-0.00265415	75.4717
3.385	0.000647323	75.4717
3.39	0.00137635	75.4717
3.395	0.00111575	75.4717
3.4	0.000215102	75.4717
3.405	-0.00239883	75.4717
3.41	-0.00422069	75.4717
3.415	-0.00381214	75.4717
3.42	-0.00393359	75.4717
3.425	-0.00566515	75.4717
3.43	-0.00716653	75.4717
3.435	-0.00924826	75.4717
3.44	-0.0122354	75.4717
3.445	-0.0140386	75.4717
3.45	-0.0157316	75.4717
3.455	-0.0192723	75.4717
3.46	-0.0227465	75.4717
3.465	-0.0255938	75.4717
3.47	-0.0302568	75.4717
3.475	-0.0359061	75.4717
3.48	-0.0397758	75.4717
3.485	-0.0429167	75.4717
3.49	-0.0469707	75.4717
3.495	-0.0499088	75.4717
3.5	-0.0515554	75.4717
3.505	-0.0535894	75.4717
3.51	-0.0545834	75.4717
3.515	-0.0540093	75.4717
3.52	-0.0549635	75.4717
3.525	-0.0574842	75.4717
3.53	-0.058192	75.4717
3.535	-0.057605	75.4717
3.54	-0.0565588	75.4717
3.545	-0.052876	75.4717
3.55	-0.0488826	75.4717
3.555	-0.0495509	75.4717
3.56	-0.0542677	75.4717
3.565	-0.060658	75.4717
3.57	-0.0689054	75.4717
3.575	-0.0768899	75.4717
3.58	-0.0805445	75.4717
3.585	-0.0811741	75.4717
3.59	-0.0813441	75.4717
3.595	-0.0796087	75.4717
3.6	-0.0764794	75.4717
3.605	-0.074331	75.4717
3.61	-0.0718759	75.4717
3.615	-0.0684249	75.4717
3.62	-0.0670907	75.4717
3.625	-0.0680037	75.4717
3.63	-0.0674753	75.4717
3.635	-0.0644626	75.4717
3.64	-0.0595828	75.4717
3.645	-0.0512714	75.4717
3.65	-0.0401151	75.4717
3.655	-0.0290956	75.4717
3.66	-0.0179197	75.4717
3.665	-0.00457739	75.4717
3.67	0.0109447	75.4717
3.675	0.0282517	75.4717
3.68	0.0458366	75.4717
3.685	0.0583942	75.4717
3.69	0.0623867	75.4717
3.695	0.0586119	75.4717
3.7	0.0461772	75.4717
3.705	0.0251544	75.4717
3.71	0.000960301	75.4717
3.715	-0.0222836	75.4717
3.72	-0.0447349	75.4717
3.725	-0.0643647	75.4717
3.73	-0.0777499	75.4717
3.735	-0.0867347	75.4717
3.74	-0.0944037	75.4717
3.745	-0.0999936	75.4717
3.75	-0.104218	75.4717
3.755	-0.109047	75.4717
3.76	-0.112515	75.4717
3.765	-0.114817	75.4717
3.77	-0.12118	75.4717
3.775	-0.130021	75.4717
3.78	-0.126845	75.4717
3.785	-0.0874064	75.4717
3.79	0.0144184	75.4717
3.795	0.194034	75.4717
3.8	0.438067	75.4717
3.805	0.691104	75.4717
3.81	0.879595	75.4717
3.815	0.956419	69.3642
3.82	0.916041	69.3642
3.825	0.787328	69.3642
3.83	0.615083	69.3642
3.835	0.436532	69.3642
3.84	0.275572	69.3642
3.845	0.147401	69.3642
3.85	0.0553793	69.3642
3.855	-0.00617751	69.3642
3.86	-0.0429554	69.3642
3.865	-0.0618651	69.3642
3.87	-0.0721956	69.3642
3.875	-0.0788895	69.3642
3.88	-0.0819217	69.3642
3.885	-0.0830027	69.3642
3.89	-0.0838004	69.3642
3.895	-0.0827928	69.3642
3.9	-0.0802675	69.3642
3.905	-0.0784264	69.3642
3.91	-0.0754	69.3642
3.915	-0.0690278	69.3642
3.92	-0.0614669	69.3642
3.925	-0.0538739	69.3642
3.93	-0.045381	69.3642
3.935	-0.0380478	69.3642
3.94	-0.0335503	69.3642
3.945	-0.0299691	69.3642
3.95	-0.0270548	69.3642
3.955	-0.0258368	69.3642
3.96	-0.0236175	69.3642
3.965	-0.0181168	69.3642
3.97	-0.0115528	69.3642
3.975	-0.00416143	69.3642
3.98	0.006909	69.3642
3.985	0.0211997	69.3642
3.99	0.0374656	69.3642
3.995	0.0572692	69.3642
4	0.0792351	69.3642
4.005	0.100171	69.3642
4.01	0.121926	69.3642
4.015	0.146871	69.3642
4.02	0.173608	69.3642
4.025	0.201538	69.3642
4.03	0.23051	69.3642
4.035	0.257261	69.3642
4.04	0.279636	69.3642
4.045	0.299301	69.3642
4.05	0.315567	69.3642
4.055	0.325484	69.3642
4.06	0.329701	69.3642
4.065	0.328325	69.3642
4.07	0.318887	69.3642
4.075	0.302405	69.3642
4.08	0.281711	69.3642
4.085	0.256115	69.3642
4.09	0.225686	69.3642
4.095	0.1943	69.3642
4.1	0.164051	69.3642
4.105	0.135234	69.3642
4.11	0.110358	69.3642
4.115	0.0899504	69.3642
4.12	0.0711526	69.3642
4.125	0.0549161	69.3642
4.13	0.0445267	69.3642
4.135	0.0376065	69.3642
4.14	0.0304265	69.3642
4.145	0.0242849	69.3642
4.15	0.0201886	69.3642
4.155	0.0171931	69.3642
4.16	0.0167246	69.3642
4.165	0.0188793	69.3642
4.17	0.0204092	69.3642
4.175	0.0211305	69.3642
4.18	0.0233695	69.3642
4.185	0.0259992	69.3642
4.19	0.0276511	69.3642
4.195	0.0304974	69.3642
4.2	0.0344632	69.3642
4.205	0.0366249	69.3642
4.21	0.0377322	69.3642
4.215	0.0386726	69.3642
4.22	0.0365503	69.3642
4.225	0.0319801	69.3642
4.23	0.0290046	69.3642
4.235	0.0260491	69.3642
4.24	0.0196598	69.3642
4.245	0.0119313	69.3642
4.25	0.00491506	69.3642
4.255	-0.00178231	69.3642
4.26	-0.00611511	69.3642
4.265	-0.00657083	69.3642
4.27	-0.00611449	69.3642
4.275	-0.00640086	69.3642
4.28	-0.00598364	69.3642
4.285	-0.0063273	69.3642
4.29	-0.00866778	69.3642
4.295	-0.0101584	69.3642
4.3	-0.010093	69.3642
4.305	-0.0104586	69.3642
4.31	-0.0101149	69.3642
4.315	-0.0087297	69.3642
4.32	-0.0105367	69.3642
4.325	-0.0165367	69.3642
4.33	-0.0237837	69.3642
4.335	-0.0324946	69.3642
4.34	-0.0422168	69.3642
4.345	-0.0480586	69.3642
4.35	-0.0490922	69.3642
4.355	-0.0484972	69.3642
4.36	-0.046081	69.3642
4.365	-0.0414642	69.3642
4.37	-0.0376019	69.3642
4.375	-0.0349644	69.3642
4.38	-0.0313027	69.3642
4.385	-0.027767	69.3642
4.39	-0.0263783	69.3642
4.395	-0.0253921	69.3642
4.4	-0.0235755	69.3642
4.405	-0.0226932	69.3642
4.41	-0.0227447	69.3642
4.415	-0.0236843	69.3642
4.42	-0.028125	69.3642
4.425	-0.0348063	69.3642
4.43	-0.0396502	69.3642
4.435	-0.0427985	69.3642
4.44	-0.0446763	69.3642
4.445	-0.0428796	69.3642
4.45	-0.0386822	69.3642
4.455	-0.0362687	69.3642
4.46	-0.0357102	69.3642
4.465	-0.0354412	69.3642
4.47	-0.0364735	69.3642
4.475	-0.0373401	69.3642
4.48	-0.03402	69.3642
4.485	-0.0279456	69.3642
4.49	-0.0243108	69.3642
4.495	-0.0238692	69.3642
4.5	-0.0249493	69.3642
4.505	-0.0270861	69.3642
4.51	-0.0278847	69.3642
4.515	-0.0249849	69.3642
4.52	-0.0195106	69.3642
4.525	-0.0112233	69.3642
4.53	0.00298346	69.3642
4.535	0.022113	69.3642
4.54	0.042492	69.3642
4.545	0.0630222	69.3642
4.55	0.0808626	69.3642
4.555	0.0911322	69.3642
4.56	0.0937055	69.3642
4.565	0.0899416	69.3642
4.57	0.078518	69.3642
4.575	0.0604345	69.3642
4.58	0.0395788	69.3642
4.585	0.0176792	69.3642
4.59	-0.0032146	69.3642
4.595	-0.0189054	69.3642
4.6	-0.0299034	69.3642
4.605	-0.0401572	69.3642
4.61	-0.0486262	69.3642
4.615	-0.0528102	69.3642
4.62	-0.0546819	69.3642
4.625	-0.0550041	69.3642
4.63	-0.0533041	69.3642
4.635	-0.0553502	69.3642
4.64	-0.0643809	69.3642
4.645	-0.0676877	69.3642
4.65	-0.0402599	69.3642
4.655	0.0446835	69.3642
4.66	0.206524	69.3642
4.665	0.440904	69.3642
4.67	0.697747	69.3642
4.675	0.901976	69.3642
4.68	0.999981	77.9221
4.685	0.976924	77.9221
4.69	0.855962	77.9221
4.695	0.683636	77.9221
4.7	0.502952	77.9221
4.705	0.34071	77.9221
4.71	0.212636	77.9221
4.715	0.123859	77.9221
4.72	0.0680088	77.9221
4.725	0.0354	77.9221
4.73	0.0181155	77.9221
4.735	0.00846958	77.9221
4.74	0.0021026	77.9221
4.745	-0.0010997	77.9221
4.75	-0.00343172	77.9221
4.755	-0.00783739	77.9221
4.76	-0.0115746	77.9221
4.765	-0.0114352	77.9221
4.77	-0.0089222	77.9221
4.775	-0.00419735	77.9221
4.78	0.00476538	77.9221
4.785	0.0162704	77.9221
4.79	0.0264531	77.9221
4.795	0.034884	77.9221
4.8	0.0415893	77.9221
4.805	0.0450414	77.9221
4.81	0.0477067	77.9221
4.815	0.0529859	77.9221
4.82	0.0591409	77.9221
4.825	0.0649579	77.9221
4.83	0.0724712	77.9221
4.835	0.0812039	77.9221
4.84	0.0906674	77.9221
4.845	0.104192	77.9221
4.85	0.122352	77.9221
4.855	0.141866	77.9221
4.86	0.162196	77.9221
4.865	0.185037	77.9221
4.87	0.20978	77.9221
4.875	0.235843	77.9221
4.88	0.263306	77.9221
4.885	0.2893	77.9221
4.89	0.312132	77.9221
4.895	0.335617	77.9221
4.9	0.360988	77.9221
4.905	0.384972	77.9221
4.91	0.407336	77.9221
4.915	0.428773	77.9221
4.92	0.446425	77.9221
4.925	0.458831	77.9221
4.93	0.466644	77.9221
4.935	0.466537	77.9221
4.94	0.454924	77.9221
4.945	0.434377	77.9221
4.95	0.408447	77.9221
4.955	0.378253	77.9221
4.96	0.345808	77.9221
4.965	0.313089	77.9221
4.97	0.279775	77.9221
4.975	0.2467	77.9221
4.98	0.216553	77.9221
4.985	0.189691	77.9221
4.99	0.166436	77.9221
4.995	0.149704	77.9221
5	0.139807	77.9221
5.005	0.133687	77.9221
5.01	0.130964	77.9221
5.015	0.131282	77.9221
5.02	0.13071	77.9221
5.025	0.12842	77.9221
5.03	0.127454	77.9221
5.035	0.128055	77.9221
5.04	0.129614	77.9221
5.045	0.133616	77.9221
5.05	0.138592	77.9221
5.055	0.140837	77.9221
5.06	0.140903	77.9221
5.065	0.140827	77.9221
5.07	0.139993	77.9221
5.075	0.138879	77.9221
5.08	0.138655	77.9221
5.085	0.136986	77.9221
5.09	0.13294	77.9221
5.095	0.130027	77.9221
5.1	0.129252	77.9221
5.105	0.127835	77.9221
5.11	0.126216	77.9221
5.115	0.12622	77.9221
5.12	0.125208	77.9221
5.125	0.120765	77.9221
5.13	0.114552	77.9221
5.135	0.106759	77.9221
5.14	0.096972	77.9221
5.145	0.0889908	77.9221
5.15	0.0851026	77.9221
5.155	0.0828471	77.9221
5.16	0.0816105	77.9221
5.165	0.0817055	77.9221
5.17	0.0796792	77.9221
5.175	0.0741985	77.9221
5.18	0.0682656	77.9221
5.185	0.0623632	77.9221
5.19	0.0560259	77.9221
5.195	0.0525429	77.9221
5.2	0.0522558	77.9221
5.205	0.051374	77.9221
5.21	0.0497989	77.9221
5.215	0.0484543	77.9221
5.22	0.0445184	77.9221
5.225	0.0379638	77.9221
5.23	0.0327327	77.9221
5.235	0.0286921	77.9221
5.24	0.0236319	77.9221
5.245	0.0201939	77.9221
5.25	0.0207255	77.9221
5.255	0.0228077	77.9221
5.26	0.0249937	77.9221
5.265	0.0271971	77.9221
5.27	0.0282813	77.9221
5.275	0.0302595	77.9221
5.28	0.0358222	77.9221
5.285	0.0429083	77.9221
5.29	0.0491508	77.9221
5.295	0.0577997	77.9221
5.3	0.07221	77.9221
5.305	0.0902577	77.9221
5.31	0.109513	77.9221
5.315	0.126915	77.9221
5.32	0.136195	77.9221
5.325	0.134875	77.9221
5.33	0.125245	77.9221
5.335	0.107992	77.9221
5.34	0.0843082	77.9221
5.345	0.0591499	77.9221
5.35	0.0355052	77.9221
5.355	0.0131603	77.9221
5.36	-0.00464108	77.9221
5.365	-0.0158792	77.9221
5.37	-0.025377	77.9221
5.375	-0.0355892	77.9221
5.38	-0.044438	77.9221
5.385	-0.0522371	77.9221
5.39	-0.0590385	77.9221
5.395	-0.0623452	77.9221
5.4	-0.0646452	77.9221
5.405	-0.0719917	77.9221
5.41	-0.0803116	77.9221
5.415	-0.071334	77.9221
5.42	-0.0174274	77.9221
5.425	0.109355	77.9221
5.43	0.32321	77.9221
5.435	0.597801	77.9221
5.44	0.858327	77.9221
5.445	1.02606	77.9221
5.45	1.06276	80
5.455	0.976658	80
5.46	0.810096	80
5.465	0.613938	80
5.47	0.424622	80
5.475	0.264179	80
5.48	0.144234	80
5.485	0.0625475	80
5.49	0.00980913	80
5.495	-0.0207796	80
5.5	-0.035812	80
5.505	-0.0428388	80
5.51	-0.0450385	80
5.515	-0.0436886	80
5.52	-0.0424312	80
5.525	-0.0430345	80
5.53	-0.0434799	80
5.535	-0.0434025	80
5.54	-0.0436508	80
5.545	-0.0424239	80
5.55	-0.039288	80
5.555	-0.0365048	80
5.56	-0.0342394	80
5.565	-0.0317429	80
5.57	-0.0301638	80
5.575	-0.0276803	80
5.58	-0.0204544	80
5.585	-0.0105823	80
5.59	-0.00212318	80
5.595	0.00616796	80
5.6	0.0154373	80
5.605	0.0246046	80
5.61	0.0357953	80
5.615	0.0507458	80
5.62	0.0670359	80
5.625	0.0838328	80
5.63	0.103395	80
5.635	0.124984	80
5.64	0.147036	80
5.645	0.171792	80
5.65	0.199109	80
5.655	0.226809	80
5.66	0.256262	80
5.665	0.287549	80
5.67	0.31619	80
5.675	0.340541	80
5.68	0.362592	80
5.685	0.380652	80
5.69	0.391556	80
5.695	0.395391	80
5.7	0.391251	80
5.705	0.376942	80
5.71	0.354601	80
5.715	0.327553	80
5.72	0.296088	80
5.725	0.262695	80
5.73	0.232345	80
5.735	0.203939	80
5.74	0.17348	80
5.745	0.143272	80
5.75	0.116314	80
5.755	0.0920512	80
5.76	0.0724202	80
5.765	0.0598411	80
5.77	0.0524437	80
5.775	0.0480811	80
5.78	0.0466387	80
5.785	0.0461134	80
5.79	0.0444447	80
5.795	0.0439805	80
5.8	0.0458308	80
5.805	0.047757	80
5.81	0.0510706	80
5.815	0.0573027	80
5.82	0.0624337	80
5.825	0.0635655	80
5.83	0.0626963	80
5.835	0.0599076	80
5.84	0.0546574	80
5.845	0.0502995	80
5.85	0.0484714	80
5.855	0.0465886	80
5.86	0.0445101	80
5.865	0.0440379	80
5.87	0.0431283	80
5.875	0.0399183	80
5.88	0.0362596	80
5.885	0.0322253	80
5.89	0.0275517	80
5.895	0.0261444	80
5.9	0.0280622	80
5.905	0.0276327	80
5.91	0.0239606	80
5.915	0.0200114	80
5.92	0.015287	80
5.925	0.0095776	80
5.93	0.00516988	80
5.935	0.00142435	80
5.94	-0.00290492	80
5.945	-0.00533443	80
5.95	-0.00547483	80
5.955	-0.00635477	80
5.96	-0.00704554	80
5.965	-0.00514533	80
5.97	-0.00229731	80
5.975	-0.000241646	80
5.98	0.000777957	80
5.985	-0.00115159	80
5.99	-0.00633937	80
5.995	-0.0107969	80
6	-0.0136153	80
6.005	-0.017003	80
6.01	-0.0192313	80
6.015	-0.0174641	80
6.02	-0.0132305	80
6.025	-0.00777265	80
6.03	0.000495904	80
6.035	0.0109731	80
6.04	0.0220779	80
6.045	0.0366811	80
6.05	0.0570096	80
6.055	0.0800109	80
6.06	0.102756	80
6.065	0.12208	80
6.07	0.131299	80
6.075	0.127264	80
6.08	0.112766	80
6.085	0.0903589	80
6.09	0.0634914	80
6.095	0.0384166	80
6.1	0.0184814	80
6.105	0.00159317	80
6.11	-0.0131983	80
6.115	-0.0244055	80
6.12	-0.0333378	80
6.125	-0.0413424	80
6.13	-0.0467508	80
6.135	-0.050881	80
6.14	-0.0563948	80
6.145	-0.0615907	80
6.15	-0.0673144	80
6.155	-0.0770806	80
6.16	-0.0835974	80
6.165	-0.0671964	80
6.17	-0.00354936	80
6.175	0.129058	80
6.18	0.340301	80
6.185	0.602833	80
6.19	0.844095	80
6.195	0.991655	80
6.2	1.01329	71.0059
6.205	0.920199	71.0059
6.21	0.754046	71.0059
6.215	0.563198	71.0059
6.22	0.382941	71.0059
6.225	0.234338	71.0059
6.23	0.126881	71.0059
6.235	0.0564746	71.0059
6.24	0.0125988	71.0059
6.245	-0.0119915	71.0059
6.25	-0.0237923	71.0059
6.255	-0.0306258	71.0059
6.26	-0.0354695	71.0059
6.265	-0.0378114	71.0059
6.27	-0.0394881	71.0059
6.275	-0.0413508	71.0059
6.28	-0.0418684	71.0059
6.285	-0.0422519	71.0059
6.29	-0.0438219	71.0059
6.295	-0.0436021	71.0059
6.3	-0.0404998	71.0059
6.305	-0.03687	71.0059
6.31	-0.0325314	71.0059
6.315	-0.0266762	71.0059
6.32	-0.0214189	71.0059
6.325	-0.0170098	71.0059
6.33	-0.011115	71.0059
6.335	-0.00463939	71.0059
6.34	0.00129131	71.0059
6.345	0.00917899	71.0059
6.35	0.0187846	71.0059
6.355	0.0273673	71.0059
6.36	0.0367977	71.0059
6.365	0.0499932	71.0059
6.37	0.0650076	71.0059
6.375	0.0805925	71.0059
6.38	0.0992866	71.0059
6.385	0.120706	71.0059
6.39	0.143568	71.0059
6.395	0.170079	71.0059
6.4	0.199518	71.0059
6.405	0.228505	71.0059
6.41	0.257396	71.0059
6.415	0.287189	71.0059
6.42	0.315634	71.0059
6.425	0.341227	71.0059
6.43	0.363677	71.0059
6.435	0.379463	71.0059
6.44	0.385664	71.0059
6.445	0.384197	71.0059
6.45	0.37654	71.0059
6.455	0.360356	71.0059
6.46	0.33541	71.0059
6.465	0.304556	71.0059
6.47	0.268643	71.0059
6.475	0.229099	71.0059
6.48	0.190246	71.0059
6.485	0.153624	71.0059
6.49	0.119083	71.0059
6.495	0.0900173	71.0059
6.5	0.0685217	71.0059
6.505	0.0523046	71.0059
6.51	0.0405615	71.0059
6.515	0.0333399	71.0059
6.52	0.0272288	71.0059
6.525	0.0205945	71.0059
6.53	0.0155749	71.0059
6.535	0.0110537	71.0059
6.54	0.00523919	71.0059
6.545	0.000805056	71.0059
6.55	-0.00100631	71.0059
6.555	-0.0021542	71.0059
6.56	-0.00176818	71.0059
6.565	0.00161228	71.0059
6.57	0.00498322	71.0059
6.575	0.00650486	71.0059
6.58	0.00798962	71.0059
6.585	0.00919826	71.0059
6.59	0.00898993	71.0059
6.595	0.00908775	71.0059
6.6	0.00917878	71.0059
6.605	0.00663175	71.0059
6.61	0.00338056	71.0059
6.615	0.00278657	71.0059
6.62	0.00367011	71.0059
6.625	0.00449679	71.0059
6.63	0.00548413	71.0059
6.635	0.00434314	71.0059
6.64	-0.00034126	71.0059
6.645	-0.00475868	71.0059
6.65	-0.00744086	71.0059
6.655	-0.0119794	71.0059
6.66	-0.0190166	71.0059
6.665	-0.0268302	71.0059
6.67	-0.0357948	71.0059
6.675	-0.0444943	71.0059
6.68	-0.0496116	71.0059
6.685	-0.0518548	71.0059
6.69	-0.0534572	71.0059
6.695	-0.0534414	71.0059
6.7	-0.0519112	71.0059
6.705	-0.0510047	71.0059
6.71	-0.0494388	71.0059
6.715	-0.0446901	71.0059
6.72	-0.0383158	71.0059
6.725	-0.0324271	71.0059
6.73	-0.0279078	71.0059
6.735	-0.0287534	71.0059
6.74	-0.0371672	71.0059
6.745	-0.0486325	71.0059
6.75	-0.0596276	71.0059
6.755	-0.0705123	71.0059
6.76	-0.0794135	71.0059
6.765	-0.0835407	71.0059
6.77	-0.0844144	71.0059
6.775	-0.0833098	71.0059
6.78	-0.0790919	71.0059
6.785	-0.0735587	71.0059
6.79	-0.0696351	71.0059
6.795	-0.0662361	71.0059
6.8	-0.0629364	71.0059
6.805	-0.0620834	71.0059
6.81	-0.0620571	71.0059
6.815	-0.0604074	71.0059
6.82	-0.0600965	71.0059
6.825	-0.0629449	71.0059
6.83	-0.0661592	71.0059
6.835	-0.0693918	71.0059
6.84	-0.0735565	71.0059
6.845	-0.0758388	71.0059
6.85	-0.075732	71.0059
6.855	-0.0770744	71.0059
6.86	-0.0790328	71.0059
6.865	-0.0775015	71.0059
6.87	-0.0730082	71.0059
6.875	-0.0661295	71.0059
6.88	-0.0542067	71.0059
6.885	-0.0395876	71.0059
6.89	-0.0257847	71.0059
6.895	-0.00958361	71.0059
6.9	0.0107449	71.0059
6.905	0.0305427	71.0059
6.91	0.0458867	71.0059
6.915	0.0550168	71.0059
6.92	0.0538522	71.0059
6.925	0.0412225	71.0059
6.93	0.0219485	71.0059
6.935	-0.00018521	71.0059
6.94	-0.0227545	71.0059
6.945	-0.0417231	71.0059
6.95	-0.0567917	71.0059
6.955	-0.0720216	71.0059
6.96	-0.087348	71.0059
6.965	-0.0994328	71.0059
6.97	-0.108285	71.0059
6.975	-0.114499	71.0059
6.98	-0.116604	71.0059
6.985	-0.115522	71.0059
6.99	-0.114288	71.0059
6.995	-0.115622	71.0059
7	-0.122687	71.0059
7.005	-0.132867	71.0059
7.01	-0.127647	71.0059
7.015	-0.0768791	71.0059
7.02	0.0426713	71.0059
7.025	0.239577	71.0059
7.03	0.495516	71.0059
7.035	0.745279	71.0059
7.04	0.911093	71.0059
7.045	0.956373	68.5714
7.05	0.888797	68.5714
7.055	0.741058	68.5714
7.06	0.557468	68.5714
7.065	0.376962	68.5714
7.07	0.221597	68.5714
7.075	0.102153	68.5714
7.08	0.0213487	68.5714
7.085	-0.0286402	68.5714
7.09	-0.0586796	68.5714
7.095	-0.0739004	68.5714
7.1	-0.0789466	68.5714
7.105	-0.0813688	68.5714
7.11	-0.0836979	68.5714
7.115	-0.0843627	68.5714
7.12	-0.084134	68.5714
7.125	-0.083177	68.5714
7.13	-0.0794086	68.5714
7.135	-0.0743211	68.5714
7.14	-0.0703649	68.5714
7.145	-0.0663176	68.5714
7.15	-0.0620907	68.5714
7.155	-0.0599457	68.5714
7.16	-0.057607	68.5714
7.165	-0.0511688	68.5714
7.17	-0.0431577	68.5714
7.175	-0.0366227	68.5714
7.18	-0.0294121	68.5714
7.185	-0.0211216	68.5714
7.19	-0.0143381	68.5714
7.195	-0.00823521	68.5714
7.2	-0.00122884	68.5714
7.205	0.00597395	68.5714
7.21	0.0150991	68.5714
7.215	0.0280922	68.5714
7.22	0.0427943	68.5714
7.225	0.0587	68.5714
7.23	0.0791816	68.5714
7.235	0.104293	68.5714
7.24	0.131689	68.5714
7.245	0.162225	68.5714
7.25	0.195614	68.5714
7.255	0.228137	68.5714
7.26	0.259266	68.5714
7.265	0.290344	68.5714
7.27	0.318618	68.5714
7.275	0.342169	68.5714
7.28	0.362583	68.5714
7.285	0.377379	68.5714
7.29	0.382345	68.5714
7.295	0.378365	68.5714
7.3	0.366512	68.5714
7.305	0.345594	68.5714
7.31	0.318377	68.5714
7.315	0.28903	68.5714
7.32	0.257179	68.5714
7.325	0.222785	68.5714
7.33	0.188472	68.5714
7.335	0.154816	68.5714
7.34	0.122465	68.5714
7.345	0.0962079	68.5714
7.35	0.0785542	68.5714
7.355	0.0655379	68.5714
7.36	0.05418	68.5714
7.365	0.044211	68.5714
7.37	0.0341897	68.5714
7.375	0.0241947	68.5714
7.38	0.0168006	68.5714
7.385	0.0118218	68.5714
7.39	0.0082104	68.5714
7.395	0.00799032	68.5714
7.4	0.0108864	68.5714
7.405	0.0140074	68.5714
7.41	0.0182699	68.5714
7.415	0.024597	68.5714
7.42	0.0292637	68.5714
7.425	0.0301482	68.5714
7.43	0.0309191	68.5714
7.435	0.0341452	68.5714
7.44	0.0377895	68.5714
7.445	0.0399652	68.5714
7.45	0.03887	68.5714
7.455	0.0324446	68.5714
7.46	0.0234714	68.5714
7.465	0.0164851	68.5714
7.47	0.0113878	68.5714
7.475	0.00776066	68.5714
7.48	0.00802053	68.5714
7.485	0.0102698	68.5714
7.49	0.00985456	68.5714
7.495	0.00746264	68.5714
7.5	0.00534471	68.5714
7.505	0.0032122	68.5714
7.51	0.00191705	68.5714
7.515	0.00217958	68.5714
7.52	0.000895969	68.5714
7.525	-0.00331141	68.5714
7.53	-0.00725747	68.5714
7.535	-0.0102268	68.5714
7.54	-0.013939	68.5714
7.545	-0.0179597	68.5714
7.55	-0.0222266	68.5714
7.555	-0.0282488	68.5714
7.56	-0.0339026	68.5714
7.565	-0.0359025	68.5714
7.57	-0.0361943	68.5714
7.575	-0.0371889	68.5714
7.58	-0.0376073	68.5714
7.585	-0.0374558	68.5714
7.59	-0.0373078	68.5714
7.595	-0.0351658	68.5714
7.6	-0.03135	68.5714
7.605	-0.0295965	68.5714
7.61	-0.0307507	68.5714
7.615	-0.0332921	68.5714
7.62	-0.0377277	68.5714
7.625	-0.0437626	68.5714
7.63	-0.0491563	68.5714
7.635	-0.0538974	68.5714
7.64	-0.0587309	68.5714
7.645	-0.0611807	68.5714
7.65	-0.0608262	68.5714
7.655	-0.0610926	68.5714
7.66	-0.0616832	68.5714
7.665	-0.0603792	68.5714
7.67	-0.0587932	68.5714
7.675	-0.0574116	68.5714
7.68	-0.0544073	68.5714
7.685	-0.0520051	68.5714
7.69	-0.0536358	68.5714
7.695	-0.0573187	68.5714
7.7	-0.0599343	68.5714
7.705	-0.0619071	68.5714
7.71	-0.0629189	68.5714
7.715	-0.0625963	68.5714
7.72	-0.0637932	68.5714
7.725	-0.0666637	68.5714
7.73	-0.0683754	68.5714
7.735	-0.0695239	68.5714
7.74	-0.0715502	68.5714
7.745	-0.0707246	68.5714
7.75	-0.063802	68.5714
7.755	-0.0531963	68.5714
7.76	-0.0412962	68.5714
7.765	-0.0283076	68.5714
7.77	-0.0145744	68.5714
7.775	0.00158646	68.5714
7.78	0.022723	68.5714
7.785	0.0452563	68.5714
7.79	0.0609978	68.5714
7.795	0.0658688	68.5714
7.8	0.0600213	68.5714
7.805	0.0441927	68.5714
7.81	0.0228392	68.5714
7.815	0.00156835	68.5714
7.82	-0.019312	68.5714
7.825	-0.0398776	68.5714
7.83	-0.0574869	68.5714
7.835	-0.0731791	68.5714
7.84	-0.0891497	68.5714
7.845	-0.102317	68.5714
7.85	-0.109796	68.5714
7.855	-0.11335	68.5714
7.86	-0.113383	68.5714
7.865	-0.109481	68.5714
7.87	-0.106616	68.5714
7.875	-0.110614	68.5714
7.88	-0.11905	68.5714
7.885	-0.12057	68.5714
7.89	-0.0922815	68.5714
7.895	-0.00400768	68.5714
7.9	0.16163	68.5714
7.905	0.395445	68.5714
7.91	0.650242	68.5714
7.915	0.85282	68.5714
7.92	0.94685	69.3642
7.925	0.920727	69.3642
7.93	0.801811	69.3642
7.935	0.631416	69.3642
7.94	0.448406	69.3642
7.945	0.284318	69.3642
7.95	0.155587	69.3642
7.955	0.0627201	69.3642
7.96	0.000607871	69.3642
7.965	-0.0367371	69.3642
7.97	-0.058156	69.3642
7.975	-0.0704674	69.3642
7.98	-0.0753029	69.3642
7.985	-0.0753221	69.3642
7.99	-0.0738503	69.3642
7.995	-0.0703614	69.3642
8	-0.0648727	69.3642
8.005	-0.0602081	69.3642
8.01	-0.0560055	69.3642
8.015	-0.0507173	69.3642
8.02	-0.0459237	69.3642
8.025	-0.041971	69.3642
8.03	-0.0381597	69.3642
8.035	-0.0363103	69.3642
8.04	-0.0371183	69.3642
8.045	-0.0368863	69.3642
8.05	-0.0337246	69.3642
8.055	-0.0295138	69.3642
8.06	-0.0234971	69.3642
8.065	-0.0143051	69.3642
8.07	-0.00485883	69.3642
8.075	0.00373857	69.3642
8.08	0.0147132	69.3642
8.085	0.0276695	69.3642
8.09	0.0398307	69.3642
8.095	0.0536016	69.3642
8.1	0.07162	69.3642
8.105	0.091725	69.3642
8.11	0.113851	69.3642
8.115	0.140074	69.3642
8.12	0.167593	69.3642
8.125	0.193119	69.3642
8.13	0.21821	69.3642
8.135	0.243941	69.3642
8.14	0.269861	69.3642
8.145	0.297129	69.3642
8.15	0.324952	69.3642
8.155	0.34912	69.3642
8.16	0.368453	69.3642
8.165	0.383993	69.3642
8.17	0.392221	69.3642
8.175	0.390451	69.3642
8.18	0.381549	69.3642
8.185	0.365865	69.3642
8.19	0.340621	69.3642
8.195	0.308115	69.3642
8.2	0.272112	69.3642
8.205	0.232689	69.3642
8.21	0.192463	69.3642
8.215	0.156274	69.3642
8.22	0.12416	69.3642
8.225	0.0955203	69.3642
8.23	0.0733457	69.3642
8.235	0.0580906	69.3642
8.24	0.0473724	69.3642
8.245	0.0416956	69.3642
8.25	0.0409054	69.3642
8.255	0.0410485	69.3642
8.26	0.0406061	69.3642
8.265	0.0412141	69.3642
8.27	0.0428673	69.3642
8.275	0.0465009	69.3642
8.28	0.0539028	69.3642
8.285	0.0604509	69.3642
8.29	0.0603221	69.3642
8.295	0.0559332	69.3642
8.3	0.051663	69.3642
8.305	0.0485094	69.3642
8.31	0.0484686	69.3642
8.315	0.0527375	69.3642
8.32	0.0576676	69.3642
8.325	0.0599182	69.3642
8.33	0.0603626	69.3642
8.335	0.0589923	69.3642
8.34	0.0550331	69.3642
8.345	0.0510455	69.3642
8.35	0.0480335	69.3642
8.355	0.04343	69.3642
8.36	0.0379629	69.3642
8.365	0.0341741	69.3642
8.37	0.0308092	69.3642
8.375	0.0271777	69.3642
8.38	0.02562	69.3642
8.385	0.024838	69.3642
8.39	0.0216848	69.3642
8.395	0.0179248	69.3642
8.4	0.0152684	69.3642
8.405	0.0123057	69.3642
8.41	0.00995081	69.3642
8.415	0.00984271	69.3642
8.42	0.00919467	69.3642
8.425	0.00639208	69.3642
8.43	0.00468065	69.3642
8.435	0.00466014	69.3642
8.44	0.00375137	69.3642
8.445	0.00264713	69.3642
8.45	0.00193445	69.3642
8.455	-0.0015238	69.3642
8.46	-0.00700924	69.3642
8.465	-0.010393	69.3642
8.47	-0.011971	69.3642
8.475	-0.013609	69.3642
8.48	-0.013232	69.3642
8.485	-0.0104469	69.3642
8.49	-0.00792994	69.3642
8.495	-0.00567555	69.3642
8.5	-0.00361904	69.3642
8.505	-0.00409736	69.3642
8.51	-0.00593476	69.3642
8.515	-0.00585689	69.3642
8.52	-0.00577097	69.3642
8.525	-0.00818946	69.3642
8.53	-0.0108579	69.3642
8.535	-0.012511	69.3642
8.54	-0.0139139	69.3642
8.545	-0.0132945	69.3642
8.55	-0.0111069	69.3642
8.555	-0.0111735	69.3642
8.56	-0.0129135	69.3642
8.565	-0.0126123	69.3642
8.57	-0.0110037	69.3642
8.575	-0.00995125	69.3642
8.58	-0.00838979	69.3642
8.585	-0.00809672	69.3642
8.59	-0.011734	69.3642
8.595	-0.0162839	69.3642
8.6	-0.0190518	69.3642
8.605	-0.0214082	69.3642
8.61	-0.0225532	69.3642
8.615	-0.0202669	69.3642
8.62	-0.0154721	69.3642
8.625	-0.00814797	69.3642
8.63	0.00417445	69.3642
8.635	0.0214158	69.3642
8.64	0.0418791	69.3642
8.645	0.0661031	69.3642
8.65	0.0920259	69.3642
8.655	0.111414	69.3642
8.66	0.118224	69.3642
8.665	0.112525	69.3642
8.67	0.0953762	69.3642
8.675	0.071105	69.3642
8.68	0.0471003	69.3642
8.685	0.024795	69.3642
8.69	0.00223005	69.3642
8.695	-0.0180362	69.3642
8.7	-0.0337316	69.3642
8.705	-0.0466528	69.3642
8.71	-0.0564316	69.3642
8.715	-0.0615979	69.3642
8.72	-0.0645143	69.3642
8.725	-0.0663184	69.3642
8.73	-0.0653457	69.3642
8.735	-0.0649206	69.3642
8.74	-0.0707538	69.3642
8.745	-0.0779838	69.3642
8.75	-0.0701124	69.3642
8.755	-0.0231288	69.3642
8.76	0.0867708	69.3642
8.765	0.27129	69.3642
8.77	0.515579	69.3642
8.775	0.763058	69.3642
8.78	0.940836	69.3642
8.785	1.00324	79.4702
8.79	0.947321	79.4702
8.795	0.805483	79.4702
8.8	0.623377	79.4702
8.805	0.439037	79.4702
8.81	0.279101	79.4702
8.815	0.157907	79.4702
8.82	0.0742152	79.4702
8.825	0.0192066	79.4702
8.83	-0.0132311	79.4702
8.835	-0.0287903	79.4702
8.84	-0.0345899	79.4702
8.845	-0.0342101	79.4702
8.85	-0.0303395	79.4702
8.855	-0.0280076	79.4702
8.86	-0.0282975	79.4702
8.865	-0.0286924	79.4702
8.87	-0.0298813	79.4702
8.875	-0.0321883	79.4702
8.88	-0.0326551	79.4702
8.885	-0.0312534	79.4702
8.89	-0.0299118	79.4702
8.895	-0.0273108	79.4702
8.9	-0.0228397	79.4702
8.905	-0.0187258	79.4702
8.91	-0.0146529	79.4702
8.915	-0.00801897	79.4702
8.92	0.000144032	79.4702
8.925	0.00825388	79.4702
8.93	0.0183023	79.4702
8.935	0.0305715	79.4702
8.94	0.0428471	79.4702
8.945	0.0554621	79.4702
8.95	0.068887	79.4702
8.955	0.0820267	79.4702
8.96	0.0977025	79.4702
8.965	0.118937	79.4702
8.97	0.142008	79.4702
8.975	0.164397	79.4702
8.98	0.189106	79.4702
8.985	0.216511	79.4702
8.99	0.243987	79.4702
8.995	0.27205	79.4702
9	0.301223	79.4702
9.005	0.329146	79.4702
9.01	0.356319	79.4702
9.015	0.384689	79.4702
9.02	0.411098	79.4702
9.025	0.431927	79.4702
9.03	0.447028	79.4702
9.035	0.453857	79.4702
9.04	0.448992	79.4702
9.045	0.433791	79.4702
9.05	0.409967	79.4702
9.055	0.377562	79.4702
9.06	0.339919	79.4702
9.065	0.300539	79.4702
9.07	0.259091	79.4702
9.075	0.2178	79.4702
9.08	0.182451	79.4702
9.085	0.153486	79.4702
9.09	0.127167	79.4702
9.095	0.102931	79.4702
9.1	0.0818956	79.4702
9.105	0.0633354	79.4702
9.11	0.0482519	79.4702
9.115	0.0395725	79.4702
9.12	0.0364757	79.4702
9.125	0.0366383	79.4702
9.13	0.0403846	79.4702
9.135	0.0459331	79.4702
9.14	0.0501623	79.4702
9.145	0.0540651	79.4702
9.15	0.0584132	79.4702
9.155	0.0610023	79.4702
9.16	0.0622669	79.4702
9.165	0.0649472	79.4702
9.17	0.0672705	79.4702
9.175	0.0660494	79.4702
9.18	0.0618847	79.4702
9.185	0.0549263	79.4702
9.19	0.0445587	79.4702
9.195	0.0344028	79.4702
9.2	0.0280424	79.4702
9.205	0.024433	79.4702
9.21	0.0226727	79.4702
9.215	0.0235954	79.4702
9.22	0.0247082	79.4702
9.225	0.0238109	79.4702
9.23	0.0226862	79.4702
9.235	0.0207172	79.4702
9.24	0.0161882	79.4702
9.245	0.0125642	79.4702
9.25	0.0124111	79.4702
9.255	0.0125865	79.4702
9.26	0.0108287	79.4702
9.265	0.00855254	79.4702
9.27	0.00491604	79.4702
9.275	-0.00181684	79.4702
9.28	-0.00960907	79.4702
9.285	-0.01735	79.4702
9.29	-0.0254189	79.4702
9.295	-0.0310415	79.4702
9.3	-0.033195	79.4702
9.305	-0.0357347	79.4702
9.31	-0.0396127	79.4702
9.315	-0.0423412	79.4702
9.32	-0.0444125	79.4702
9.325	-0.0466604	79.4702
9.33	-0.0468156	79.4702
9.335	-0.0448952	79.4702
9.34	-0.0433645	79.4702
9.345	-0.0416902	79.4702
9.35	-0.0390962	79.4702
9.355	-0.0370926	79.4702
9.36	-0.0354856	79.4702
9.365	-0.0331011	79.4702
9.37	-0.030399	79.4702
9.375	-0.024898	79.4702
9.38	-0.0128961	79.4702
9.385	0.00241771	79.4702
9.39	0.0167334	79.4702
9.395	0.031776	79.4702
9.4	0.0484857	79.4702
9.405	0.0624834	79.4702
9.41	0.0704151	79.4702
9.415	0.0713556	79.4702
9.42	0.0628729	79.4702
9.425	0.0456784	79.4702
9.43	0.0253695	79.4702
9.435	0.00459478	79.4702
9.44	-0.0173125	79.4702
9.445	-0.0380599	79.4702
9.45	-0.0549011	79.4702
9.455	-0.0696401	79.4702
9.46	-0.0826433	79.4702
9.465	-0.090296	79.4702
9.47	-0.0929893	79.4702
9.475	-0.0943805	79.4702
9.48	-0.0953855	79.4702
9.485	-0.0970988	79.4702
9.49	-0.103493	79.4702
9.495	-0.116232	79.4702
9.5	-0.130126	79.4702
9.505	-0.131504	79.4702
9.51	-0.0923924	79.4702
9.515	0.0184886	79.4702
9.52	0.215549	79.4702
9.525	0.479798	79.4702
9.53	0.745867	79.4702
9.535	0.930961	79.4702
9.54	0.987594	79.4702
9.545	0.922114	79.4702
9.55	0.773723	79.4702
9.555	0.586861	79.4702
9.56	0.399673	79.4702
9.565	0.238986	79.4702
9.57	0.115343	79.4702
9.575	0.0286319	79.4702
9.58	-0.024671	79.4702
9.585	-0.0541017	79.4702
9.59	-0.0717163	79.4702
9.595	-0.0829072	79.4702
9.6	-0.0893148	79.4702
9.605	-0.0936515	79.4702
9.61	-0.0961929	79.4702
9.615	-0.0954213	79.4702
9.62	-0.0933432	79.4702
9.625	-0.0914825	79.4702
9.63	-0.0877424	79.4702
9.635	-0.0824982	79.4702
9.64	-0.077671	79.4702
9.645	-0.0715527	79.4702
9.65	-0.0645016	79.4702
9.655	-0.0604671	79.4702
9.66	-0.0593396	79.4702
9.665	-0.0576905	79.4702
9.67	-0.055445	79.4702
9.675	-0.052699	79.4702
9.68	-0.0463761	79.4702
9.685	-0.0372159	79.4702
9.69	-0.028725	79.4702
9.695	-0.0195278	79.4702
9.7	-0.00763423	79.4702
9.705	0.00537712	79.4702
9.71	0.0194705	79.4702
9.715	0.0361631	79.4702
9.72	0.0538769	79.4702
9.725	0.0722243	79.4702
9.73	0.0955899	79.4702
9.735	0.125787	79.4702
9.74	0.159035	79.4702
9.745	0.192764	79.4702
9.75	0.225778	79.4702
9.755	0.255632	79.4702
9.76	0.283133	79.4702
9.765	0.310212	79.4702
9.77	0.333782	79.4702
9.775	0.350832	79.4702
9.78	0.362848	79.4702
9.785	0.370156	79.4702
9.79	0.369811	79.4702
9.795	0.361535	79.4702
9.8	0.345944	79.4702
9.805	0.320678	79.4702
9.81	0.286244	79.4702
9.815	0.247946	79.4702
9.82	0.208475	79.4702
9.825	0.168968	79.4702
9.83	0.133675	79.4702
9.835	0.10433	79.4702
9.84	0.0784649	79.4702
9.845	0.0566839	79.4702
9.85	0.0405849	79.4702
9.855	0.0280175	79.4702
9.86	0.0186992	79.4702
9.865	0.0146208	79.4702
9.87	0.0136257	79.4702
9.875	0.0124854	79.4702
9.88	0.0115846	79.4702
9.885	0.0107552	79.4702
9.89	0.00929709	79.4702
9.895	0.00976473	79.4702
9.9	0.0127522	79.4702
9.905	0.0145846	79.4702
9.91	0.0141965	79.4702
9.915	0.0139752	79.4702
9.92	0.0138871	79.4702
9.925	0.0137004	79.4702
9.93	0.0151262	79.4702
9.935	0.0164208	79.4702
9.94	0.0149881	79.4702
9.945	0.013366	79.4702
9.95	0.013505	79.4702
9.955	0.0127419	79.4702
9.96	0.0112835	79.4702
9.965	0.0120924	79.4702
9.97	0.0130086	79.4702
9.975	0.0106787	79.4702
9.98	0.00732976	79.4702
9.985	0.00424939	79.4702
9.99	-0.000924203	79.4702
9.995	-0.00759887	79.4702
10	-0.0140182	79.4702
10.005	-0.0215691	79.4702
10.01	-0.0294872	79.4702
10.015	-0.0353372	79.4702
10.02	-0.0400987	79.4702
10.025	-0.0440539	79.4702
10.03	-0.0444532	79.4702
10.035	-0.0424305	79.4702
10.04	-0.0415031	79.4702
10.045	-0.0401899	79.4702
10.05	-0.0361757	79.4702
10.055	-0.0314683	79.4702
10.06	-0.0273863	79.4702
10.065	-0.0240501	79.4702
10.07	-0.0241453	79.4702
10.075	-0.0276165	79.4702
10.08	-0.0307935	79.4702
10.085	-0.0345084	79.4702
10.09	-0.0412025	79.4702
10.095	-0.048274	79.4702
10.1	-0.0534882	79.4702
10.105	-0.0580538	79.4702
10.11	-0.0602847	79.4702
10.115	-0.056701	79.4702
10.12	-0.0485591	79.4702
10.125	-0.0384699	79.4702
10.13	-0.0251273	79.4702
10.135	-0.00876369	79.4702
10.14	0.00753087	79.4702
10.145	0.0256945	79.4702
10.15	0.0496268	79.4702
10.155	0.0755301	79.4702
10.16	0.0963871	79.4702
10.165	0.108219	79.4702
10.17	0.107333	79.4702
10.175	0.0930617	79.4702
10.18	0.0712737	79.4702
10.185	0.0466274	79.4702
10.19	0.0198952	79.4702
10.195	-0.00575605	79.4702
10.2	-0.0271902	79.4702
10.205	-0.0459943	79.4702
10.21	-0.062524	79.4702
10.215	-0.0740243	79.4702
10.22	-0.0807346	79.4702
10.225	-0.0845358	79.4702
10.23	-0.0855846	79.4702
10.235	-0.0857068	79.4702
10.24	-0.0876957	79.4702
10.245	-0.0902606	79.4702
10.25	-0.092812	79.4702
10.255	-0.0973625	79.4702
10.26	-0.0950505	79.4702
10.265	-0.0597927	79.4702
10.27	0.0368626	79.4702
10.275	0.211714	79.4702
10.28	0.458117	79.4702
10.285	0.721738	79.4702
10.29	0.918899	79.4702
10.295	0.996541	69.3642
10.3	0.951496	69.3642
10.305	0.813081	69.3642
10.31	0.627652	69.3642
10.315	0.440307	69.3642
10.32	0.27832	69.3642
10.325	0.153103	69.3642
10.33	0.0677747	69.3642
10.335	0.0162565	69.3642
10.34	-0.0132434	69.3642
10.345	-0.0292511	69.3642
10.35	-0.0379401	69.3642
10.355	-0.0454115	69.3642
10.36	-0.0531685	69.3642
10.365	-0.0600359	69.3642
10.37	-0.0670802	69.3642
10.375	-0.0741238	69.3642
10.38	-0.0777262	69.3642
10.385	-0.0773865	69.3642
10.39	-0.075577	69.3642
10.395	-0.0715533	69.3642
10.4	-0.0644085	69.3642
10.405	-0.0565147	69.3642
10.41	-0.0487128	69.3642
10.415	-0.0399219	69.3642
10.42	-0.0316513	69.3642
10.425	-0.0246473	69.3642
10.43	-0.0171735	69.3642
10.435	-0.00978614	69.3642
10.44	-0.00347314	69.3642
10.445	0.00400737	69.3642
10.45	0.0131234	69.3642
10.455	0.0205286	69.3642
10.46	0.0260896	69.3642
10.465	0.0339311	69.3642
10.47	0.0454881	69.3642
10.475	0.0603332	69.3642
10.48	0.079894	69.3642
10.485	0.103449	69.3642
10.49	0.128259	69.3642
10.495	0.15558	69.3642
10.5	0.187198	69.3642
10.505	0.21981	69.3642
10.51	0.250742	69.3642
10.515	0.281242	69.3642
10.52	0.309949	69.3642
10.525	0.334163	69.3642
10.53	0.35485	69.3642
10.535	0.371399	69.3642
10.54	0.380314	69.3642
10.545	0.381255	69.3642
10.55	0.374697	69.3642
10.555	0.356847	69.3642
10.56	0.327351	69.3642
10.565	0.291429	69.3642
10.57	0.252334	69.3642
10.575	0.21162	69.3642
10.58	0.172539	69.3642
10.585	0.136527	69.3642
10.59	0.102935	69.3642
10.595	0.0745644	69.3642
10.6	0.0533178	69.3642
10.605	0.0363495	69.3642
10.61	0.0226943	69.3642
10.615	0.0137935	69.3642
10.62	0.00770992	69.3642
10.625	0.00211431	69.3642
10.63	-0.00103985	69.3642
10.635	-0.000958839	69.3642
10.64	-0.000530252	69.3642
10.645	0.000204551	69.3642
10.65	0.00216549	69.3642
10.655	0.00258224	69.3642
10.66	0.00122337	69.3642
10.665	0.00112736	69.3642
10.67	0.00192163	69.3642
10.675	0.00239548	69.3642
10.68	0.00420879	69.3642
10.685	0.00633846	69.3642
10.69	0.00587695	69.3642
10.695	0.00468204	69.3642
10.7	0.0056028	69.3642
10.705	0.00759586	69.3642
10.71	0.01029	69.3642
10.715	0.0138327	69.3642
10.72	0.0149561	69.3642
10.725	0.0115332	69.3642
10.73	0.00632505	69.3642
10.735	0.000510166	69.3642
10.74	-0.00679257	69.3642
10.745	-0.0130965	69.3642
10.75	-0.0166003	69.3642
10.755	-0.0205815	69.3642
10.76	-0.0266433	69.3642
10.765	-0.0328379	69.3642
10.77	-0.039285	69.3642
10.775	-0.0454025	69.3642
10.78	-0.0482411	69.3642
10.785	-0.0487882	69.3642
10.79	-0.0495681	69.3642
10.795	-0.0486734	69.3642
10.8	-0.0446377	69.3642
10.805	-0.0412843	69.3642
10.81	-0.0415832	69.3642
10.815	-0.0435646	69.3642
10.82	-0.0461302	69.3642
10.825	-0.0492263	69.3642
10.83	-0.0508742	69.3642
10.835	-0.0513587	69.3642
10.84	-0.0538317	69.3642
10.845	-0.0579312	69.3642
10.85	-0.0612239	69.3642
10.855	-0.0650112	69.3642
10.86	-0.0693915	69.3642
10.865	-0.0706965	69.3642
10.87	-0.0690688	69.3642
10.875	-0.0675969	69.3642
10.88	-0.066337	69.3642
10.885	-0.0657099	69.3642
10.89	-0.0673465	69.3642
10.895	-0.0691021	69.3642
10.9	-0.0690332	69.3642
10.905	-0.0697534	69.3642
10.91	-0.0715802	69.3642
10.915	-0.0714828	69.3642
10.92	-0.0697661	69.3642
10.925	-0.0679784	69.3642
10.93	-0.065824	69.3642
10.935	-0.0649224	69.3642
10.94	-0.0681755	69.3642
10.945	-0.0732801	69.3642
10.95	-0.0759542	69.3642
10.955	-0.0772083	69.3642
10.96	-0.0785808	69.3642
10.965	-0.0787683	69.3642
10.97	-0.078772	69.3642
10.975	-0.0794909	69.3642
10.98	-0.0773979	69.3642
10.985	-0.0707722	69.3642
10.99	-0.0608428	69.3642
10.995	-0.0467111	69.3642
11	-0.0291174	69.3642
11.005	-0.0109706	69.3642
11.01	0.0082427	69.3642
11.015	0.0292296	69.3642
11.02	0.0473243	69.3642
11.025	0.0579136	69.3642
11.03	0.0610186	69.3642
11.035	0.0565577	69.3642
11.04	0.0439498	69.3642
11.045	0.0266789	69.3642
11.05	0.00782471	69.3642
11.055	-0.0129641	69.3642
11.06	-0.0334909	69.3642
11.065	-0.0502356	69.3642
11.07	-0.0649314	69.3642
11.075	-0.0792153	69.3642
11.08	-0.0901207	69.3642
11.085	-0.0972499	69.3642
11.09	-0.103404	69.3642
11.095	-0.108133	69.3642
11.1	-0.110468	69.3642
11.105	-0.113477	69.3642
11.11	-0.119792	69.3642
11.115	-0.128	69.3642
11.12	-0.131137	69.3642
11.125	-0.10898	69.3642
11.13	-0.0307953	69.3642
11.135	0.122932	69.3642
11.14	0.349568	69.3642
11.145	0.616735	69.3642
11.15	0.855651	69.3642
11.155	0.99519	69.3642
11.16	1.00731	68.9655
11.165	0.910926	68.9655
11.17	0.746107	68.9655
11.175	0.555011	68.9655
11.18	0.372923	68.9655
11.185	0.220069	68.9655
11.19	0.102091	68.9655
11.195	0.0198115	68.9655
11.2	-0.029679	68.9655
11.205	-0.0561377	68.9655
11.21	-0.0689005	68.9655
11.215	-0.0726568	68.9655
11.22	-0.0728457	68.9655
11.225	-0.073588	68.9655
11.23	-0.0733379	68.9655
11.235	-0.0705774	68.9655
11.24	-0.0664037	68.9655
11.245	-0.0600954	68.9655
11.25	-0.051305	68.9655
11.255	-0.0441708	68.9655
11.26	-0.0405239	68.9655
11.265	-0.036767	68.9655
11.27	-0.0324813	68.9655
11.275	-0.0301143	68.9655
11.28	-0.0279794	68.9655
11.285	-0.0247323	68.9655
11.29	-0.0222361	68.9655
11.295	-0.0194073	68.9655
11.3	-0.013552	68.9655
11.305	-0.00545572	68.9655
11.31	0.00418554	68.9655
11.315	0.0159831	68.9655
11.32	0.0279753	68.9655
11.325	0.0394552	68.9655
11.33	0.0546706	68.9655
11.335	0.075473	68.9655
11.34	0.0982161	68.9655
11.345	0.121196	68.9655
11.35	0.144949	68.9655
11.355	0.168298	68.9655
11.36	0.192674	68.9655
11.365	0.221621	68.9655
11.37	0.25353	68.9655
11.375	0.284794	68.9655
11.38	0.315314	68.9655
11.385	0.344171	68.9655
11.39	0.368833	68.9655
11.395	0.390132	68.9655
11.4	0.408856	68.9655
11.405	0.420284	68.9655
11.41	0.421041	68.9655
11.415	0.412137	68.9655
11.42	0.393209	68.9655
11.425	0.365747	68.9655
11.43	0.335284	68.9655
11.435	0.302583	68.9655
11.44	0.26525	68.9655
11.445	0.226409	68.9655
11.45	0.190551	68.9655
11.455	0.157578	68.9655
11.46	0.128156	68.9655
11.465	0.104861	68.9655
11.47	0.0867846	68.9655
11.475	0.0729004	68.9655
11.48	0.0652781	68.9655
11.485	0.0625816	68.9655
11.49	0.0594491	68.9655
11.495	0.0551842	68.9655
11.5	0.0525511	68.9655
11.505	0.0512748	68.9655
11.51	0.0509015	68.9655
11.515	0.051948	68.9655
11.52	0.0528805	68.9655
11.525	0.0527581	68.9655
11.53	0.0547822	68.9655
11.535	0.059963	68.9655
11.54	0.0643015	68.9655
11.545	0.0661737	68.9655
11.55	0.0664903	68.9655
11.555	0.0644931	68.9655
11.56	0.0615123	68.9655
11.565	0.0611208	68.9655
11.57	0.061812	68.9655
11.575	0.0606003	68.9655
11.58	0.0595273	68.9655
11.585	0.059104	68.9655
11.59	0.0561842	68.9655
11.595	0.051703	68.9655
11.6	0.0477488	68.9655
11.605	0.0421867	68.9655
11.61	0.0345218	68.9655
11.615	0.0280856	68.9655
11.62	0.0237634	68.9655
11.625	0.0207507	68.9655
11.63	0.0199789	68.9655
11.635	0.0198708	68.9655
11.64	0.0170858	68.9655
11.645	0.0129846	68.9655
11.65	0.0108923	68.9655
11.655	0.0101218	68.9655
11.66	0.00978333	68.9655
11.665	0.0111308	68.9655
11.67	0.011378	68.9655
11.675	0.00707998	68.9655
11.68	0.00103544	68.9655
11.685	-0.00443994	68.9655
11.69	-0.0103201	68.9655
11.695	-0.0140313	68.9655
11.7	-0.0136195	68.9655
11.705	-0.0130276	68.9655
11.71	-0.0144042	68.9655
11.715	-0.0157927	68.9655
11.72	-0.0176112	68.9655
11.725	-0.0210028	68.9655
11.73	-0.0236706	68.9655
11.735	-0.0249998	68.9655
11.74	-0.0269772	68.9655
11.745	-0.0282631	68.9655
11.75	-0.0270613	68.9655
11.755	-0.0255415	68.9655
11.76	-0.024804	68.9655
11.765	-0.0236044	68.9655
11.77	-0.0231634	68.9655
11.775	-0.024412	68.9655
11.78	-0.0252386	68.9655
11.785	-0.0255311	68.9655
11.79	-0.0276132	68.9655
11.795	-0.0308271	68.9655
11.8	-0.0332259	68.9655
11.805	-0.0358381	68.9655
11.81	-0.0379568	68.9655
11.815	-0.0370497	68.9655
11.82	-0.0353003	68.9655
11.825	-0.0361884	68.9655
11.83	-0.0387181	68.9655
11.835	-0.041889	68.9655
11.84	-0.0466378	68.9655
11.845	-0.0502502	68.9655
11.85	-0.0495416	68.9655
11.855	-0.0466549	68.9655
11.86	-0.0427397	68.9655
11.865	-0.0354232	68.9655
11.87	-0.0250534	68.9655
11.875	-0.0138605	68.9655
11.88	0.000237036	68.9655
11.885	0.0195876	68.9655
11.89	0.0420157	68.9655
11.895	0.0650793	68.9655
11.9	0.0857843	68.9655
11.905	0.0980314	68.9655
11.91	0.0989587	68.9655
11.915	0.0907851	68.9655
11.92	0.0742946	68.9655
11.925	0.0509477	68.9655
11.93	0.0260326	68.9655
11.935	0.00195234	68.9655
11.94	-0.0221354	68.9655
11.945	-0.0431317	68.9655
11.95	-0.0579436	68.9655
11.955	-0.0693795	68.9655
11.96	-0.0790387	68.9655
11.965	-0.0851386	68.9655
11.97	-0.0885189	68.9655
11.975	-0.0911484	68.9655
11.98	-0.0924601	68.9655
11.985	-0.0949902	68.9655
11.99	-0.102567	68.9655
11.995	-0.106901	68.9655
12	-0.0848044	68.9655
12.005	-0.00914526	68.9655
12.01	0.140169	68.9655
12.015	0.366539	68.9655
12.02	0.631558	68.9655
12.025	0.857446	68.9655
12.03	0.979488	75.4717
12.035	0.976473	75.4717
12.04	0.866093	75.4717
12.045	0.692496	75.4717
12.05	0.503401	75.4717
12.055	0.330371	75.4717
12.06	0.189855	75.4717
12.065	0.0883715	75.4717
12.07	0.0217911	75.4717
12.075	-0.0188701	75.4717
12.08	-0.0409102	75.4717
12.085	-0.0520666	75.4717
12.09	-0.0593276	75.4717
12.095	-0.0631518	75.4717
12.1	-0.0618056	75.4717
12.105	-0.0576206	75.4717
12.11	-0.0528065	75.4717
12.115	-0.0470919	75.4717
12.12	-0.0419934	75.4717
12.125	-0.0386463	75.4717
12.13	-0.0346063	75.4717
12.135	-0.0292312	75.4717
12.14	-0.0245415	75.4717
12.145	-0.0199374	75.4717
12.15	-0.0147762	75.4717
12.155	-0.0115172	75.4717
12.16	-0.0100611	75.4717
12.165	-0.0068249	75.4717
12.17	-0.00155423	75.4717
12.175	0.00385327	75.4717
12.18	0.0116598	75.4717
12.185	0.0238282	75.4717
12.19	0.0381278	75.4717
12.195	0.0533709	75.4717
12.2	0.0686761	75.4717
12.205	0.0810454	75.4717
12.21	0.09151	75.4717
12.215	0.105124	75.4717
12.22	0.123324	75.4717
12.225	0.145194	75.4717
12.23	0.172161	75.4717
12.235	0.203882	75.4717
12.24	0.236777	75.4717
12.245	0.270387	75.4717
12.25	0.305369	75.4717
12.255	0.338799	75.4717
12.26	0.369611	75.4717
12.265	0.399692	75.4717
12.27	0.426237	75.4717
12.275	0.443348	75.4717
12.28	0.449938	75.4717
12.285	0.446213	75.4717
12.29	0.431485	75.4717
12.295	0.408895	75.4717
12.3	0.381769	75.4717
12.305	0.348583	75.4717
12.31	0.309644	75.4717
12.315	0.270114	75.4717
12.32	0.233044	75.4717
12.325	0.198723	75.4717
12.33	0.168747	75.4717
12.335	0.142909	75.4717
12.34	0.119275	75.4717
12.345	0.099235	75.4717
12.35	0.0850608	75.4717
12.355	0.0749418	75.4717
12.36	0.0673458	75.4717
12.365	0.0632196	75.4717
12.37	0.0601831	75.4717
12.375	0.0553976	75.4717
12.38	0.0514878	75.4717
12.385	0.0499936	75.4717
12.39	0.0486862	75.4717
12.395	0.0483957	75.4717
12.4	0.0518385	75.4717
12.405	0.0573834	75.4717
12.41	0.0621246	75.4717
12.415	0.0659952	75.4717
12.42	0.0684178	75.4717
12.425	0.0688932	75.4717
12.43	0.0684534	75.4717
12.435	0.0663302	75.4717
12.44	0.0605966	75.4717
12.445	0.0533538	75.4717
12.45	0.047682	75.4717
12.455	0.0430238	75.4717
12.46	0.0391508	75.4717
12.465	0.0369796	75.4717
12.47	0.0339664	75.4717
12.475	0.0279897	75.4717
12.48	0.0218514	75.4717
12.485	0.0173609	75.4717
12.49	0.0132872	75.4717
12.495	0.0112354	75.4717
12.5	0.0122058	75.4717
12.505	0.0126022	75.4717
12.51	0.0111586	75.4717
12.515	0.0105483	75.4717
12.52	0.0103753	75.4717
12.525	0.00817051	75.4717
12.53	0.005284	75.4717
12.535	0.00281639	75.4717
12.54	-0.00131512	75.4717
12.545	-0.00641321	75.4717
12.55	-0.0101737	75.4717
12.555	-0.015082	75.4717
12.56	-0.0227423	75.4717
12.565	-0.0300048	75.4717
12.57	-0.0357557	75.4717
12.575	-0.0412252	75.4717
12.58	-0.0445741	75.4717
12.585	-0.0444322	75.4717
12.59	-0.0428661	75.4717
12.595	-0.0401997	75.4717
12.6	-0.0364511	75.4717
12.605	-0.0354832	75.4717
12.61	-0.0388456	75.4717
12.615	-0.0428811	75.4717
12.62	-0.0460846	75.4717
12.625	-0.049037	75.4717
12.63	-0.0496274	75.4717
12.635	-0.0474754	75.4717
12.64	-0.0468253	75.4717
12.645	-0.0488717	75.4717
12.65	-0.05061	75.4717
12.655	-0.0499279	75.4717
12.66	-0.0448633	75.4717
12.665	-0.0341031	75.4717
12.67	-0.0210869	75.4717
12.675	-0.00780978	75.4717
12.68	0.0101036	75.4717
12.685	0.0334526	75.4717
12.69	0.0555166	75.4717
12.695	0.0708594	75.4717
12.7	0.0765441	75.4717
12.705	0.0696415	75.4717
12.71	0.0518479	75.4717
12.715	0.0297803	75.4717
12.72	0.00698936	75.4717
12.725	-0.0166461	75.4717
12.73	-0.0390335	75.4717
12.735	-0.0590926	75.4717
12.74	-0.0785884	75.4717
12.745	-0.0951013	75.4717
12.75	-0.105075	75.4717
12.755	-0.111054	75.4717
12.76	-0.115205	75.4717
12.765	-0.117109	75.4717
12.77	-0.119847	75.4717
12.775	-0.126046	75.4717
12.78	-0.13522	75.4717
12.785	-0.146191	75.4717
12.79	-0.15156	75.4717
12.795	-0.1274	75.4717
12.8	-0.0422378	75.4717
12.805	0.123648	75.4717
12.81	0.368349	75.4717
12.815	0.646084	75.4717
12.82	0.871	75.4717
12.825	0.976113	83.3333
12.83	0.949406	83.3333
12.835	0.819237	83.3333
12.84	0.631235	83.3333
12.845	0.433088	83.3333
12.85	0.258867	83.3333
12.855	0.122344	83.3333
12.86	0.0259508	83.3333
12.865	-0.0327777	83.3333
12.87	-0.0636647	83.3333
12.875	-0.0796397	83.3333
12.88	-0.088178	83.3333
12.885	-0.0932809	83.3333
12.89	-0.0985228	83.3333
12.895	-0.102518	83.3333
12.9	-0.101745	83.3333
12.905	-0.0972669	83.3333
12.91	-0.0914385	83.3333
12.915	-0.0848194	83.3333
12.92	-0.0795857	83.3333
12.925	-0.0781863	83.3333
12.93	-0.0787777	83.3333
12.935	-0.079268	83.3333
12.94	-0.0805947	83.3333
12.945	-0.0816485	83.3333
12.95	-0.0795601	83.3333
12.955	-0.0746939	83.3333
12.96	-0.0677797	83.3333
12.965	-0.0582443	83.3333
12.97	-0.0480396	83.3333
12.975	-0.0387894	83.3333
12.98	-0.0287021	83.3333
12.985	-0.0174064	83.3333
12.99	-0.0064577	83.3333
12.995	0.00620163	83.3333
13	0.0230266	83.3333
13.005	0.0410828	83.3333
13.01	0.0589625	83.3333
13.015	0.0805877	83.3333
13.02	0.107615	83.3333
13.025	0.138553	83.3333
13.03	0.172613	83.3333
13.035	0.206973	83.3333
13.04	0.237471	83.3333
13.045	0.265127	83.3333
13.05	0.292804	83.3333
13.055	0.319084	83.3333
13.06	0.342533	83.3333
13.065	0.363577	83.3333
13.07	0.378772	83.3333
13.075	0.384314	83.3333
13.08	0.381859	83.3333
13.085	0.372446	83.3333
13.09	0.353953	83.3333
13.095	0.326775	83.3333
13.1	0.293531	83.3333
13.105	0.255286	83.3333
13.11	0.215305	83.3333
13.115	0.179496	83.3333
13.12	0.148252	83.3333
13.125	0.117859	83.3333
13.13	0.0888225	83.3333
13.135	0.0629602	83.3333
13.14	0.040452	83.3333
13.145	0.0235837	83.3333
13.15	0.0139617	83.3333
13.155	0.00819291	83.3333
13.16	0.0040892	83.3333
13.165	0.00382112	83.3333
13.17	0.00673672	83.3333
13.175	0.0103098	83.3333
13.18	0.0154701	83.3333
13.185	0.0218592	83.3333
13.19	0.026762	83.3333
13.195	0.0310618	83.3333
13.2	0.0364003	83.3333
13.205	0.039443	83.3333
13.21	0.037206	83.3333
13.215	0.03186	83.3333
13.22	0.0251173	83.3333
13.225	0.0176263	83.3333
13.23	0.0129938	83.3333
13.235	0.0128063	83.3333
13.24	0.0132384	83.3333
13.245	0.0127826	83.3333
13.25	0.0130769	83.3333
13.255	0.0125915	83.3333
13.26	0.00999743	83.3333
13.265	0.00771407	83.3333
13.27	0.00613893	83.3333
13.275	0.00359729	83.3333
13.28	0.00217894	83.3333
13.285	0.00342862	83.3333
13.29	0.00458981	83.3333
13.295	0.00456463	83.3333
13.3	0.00458794	83.3333
13.305	0.00303776	83.3333
13.31	-0.00166613	83.3333
13.315	-0.00771305	83.3333
13.32	-0.0153443	83.3333
13.325	-0.0254925	83.3333
13.33	-0.0341412	83.3333
13.335	-0.0384	83.3333
13.34	-0.040409	83.3333
13.345	-0.0410319	83.3333
13.35	-0.0391697	83.3333
13.355	-0.0366547	83.3333
13.36	-0.0346057	83.3333
13.365	-0.0303622	83.3333
13.37	-0.0233629	83.3333
13.375	-0.0144425	83.3333
13.38	-0.00114577	83.3333
13.385	0.0160665	83.3333
13.39	0.0325208	83.3333
13.395	0.049326	83.3333
13.4	0.070642	83.3333
13.405	0.0932275	83.3333
13.41	0.110243	83.3333
13.415	0.118323	83.3333
13.42	0.114228	83.3333
13.425	0.0971386	83.3333
13.43	0.0730621	83.3333
13.435	0.0463611	83.3333
13.44	0.0176188	83.3333
13.445	-0.00909911	83.3333
13.45	-0.0297148	83.3333
13.455	-0.0462567	83.3333
13.46	-0.0604044	83.3333
13.465	-0.0695037	83.3333
13.47	-0.0740684	83.3333
13.475	-0.076744	83.3333
13.48	-0.0761215	83.3333
13.485	-0.072563	83.3333
13.49	-0.0710096	83.3333
13.495	-0.0746601	83.3333
13.5	-0.0850002	83.3333
13.505	-0.0994102	83.3333
13.51	-0.100606	83.3333
13.515	-0.0562147	83.3333
13.52	0.061691	83.3333
13.525	0.263862	83.3333
13.53	0.532536	83.3333
13.535	0.80102	83.3333
13.54	0.983794	83.3333
13.545	1.03593	80
13.55	0.964538	80
13.555	0.805775	80
13.56	0.607468	80
13.565	0.414885	80
13.57	0.254731	80
13.575	0.133742	80
13.58	0.0506653	80
13.585	-0.000374314	80
13.59	-0.0298852	80
13.595	-0.0451746	80
13.6	-0.0496837	80
13.605	-0.0494467	80
13.61	-0.0497134	80
13.615	-0.0500689	80
13.62	-0.0501513	80
13.625	-0.0512297	80
13.63	-0.0517486	80
13.635	-0.0506673	80
13.64	-0.0501123	80
13.645	-0.0506671	80
13.65	-0.0508419	80
13.655	-0.0512142	80
13.66	-0.0515073	80
13.665	-0.0484543	80
13.67	-0.0421858	80
13.675	-0.0353674	80
13.68	-0.0271614	80
13.685	-0.0170515	80
13.69	-0.00750713	80
13.695	0.00235967	80
13.7	0.0160828	80
13.705	0.0327922	80
13.71	0.0511421	80
13.715	0.0721724	80
13.72	0.093549	80
13.725	0.110542	80
13.73	0.121697	80
13.735	0.129017	80
13.74	0.135862	80
13.745	0.148264	80
13.75	0.170446	80
13.755	0.199878	80
13.76	0.233154	80
13.765	0.269902	80
13.77	0.307218	80
13.775	0.340988	80
13.78	0.371038	80
13.785	0.396261	80
13.79	0.41098	80
13.795	0.411942	80
13.8	0.399558	80
13.805	0.374105	80
13.81	0.339285	80
13.815	0.302152	80
13.82	0.265583	80
13.825	0.229601	80
13.83	0.196127	80
13.835	0.165668	80
13.84	0.135676	80
13.845	0.106763	80
13.85	0.0819274	80
13.855	0.0611729	80
13.86	0.0455665	80
13.865	0.0377142	80
13.87	0.0354112	80
13.875	0.0340331	80
13.88	0.0327699	80
13.885	0.0319671	80
13.89	0.0310765	80
13.895	0.0323967	80
13.9	0.0378133	80
13.905	0.0434654	80
13.91	0.0454926	80
13.915	0.0454131	80
13.92	0.0444152	80
13.925	0.0422726	80
13.93	0.0416085	80
13.935	0.0431925	80
13.94	0.0438025	80
13.945	0.0428837	80
13.95	0.0418492	80
13.955	0.0386496	80
13.96	0.0325497	80
13.965	0.0273089	80
13.97	0.0235606	80
13.975	0.0193421	80
13.98	0.0166476	80
13.985	0.0166225	80
13.99	0.0167978	80
13.995	0.0177538	80
14	0.0218693	80
14.005	0.0256793	80
14.01	0.025508	80
14.015	0.023049	80
14.02	0.0186056	80
14.025	0.010694	80
14.03	0.00199059	80
14.035	-0.00478287	80
14.04	-0.0106663	80
14.045	-0.0152123	80
14.05	-0.0165805	80
14.055	-0.0164154	80
14.06	-0.0163049	80
14.065	-0.0154548	80
14.07	-0.015276	80
14.075	-0.0175453	80
14.08	-0.0190693	80
14.085	-0.0179518	80
14.09	-0.017728	80
14.095	-0.018978	80
14.1	-0.0197596	80
14.105	-0.022023	80
14.11	-0.0258309	80
14.115	-0.026282	80
14.12	-0.0225794	80
14.125	-0.0167305	80
14.13	-0.00589729	80
14.135	0.0108263	80
14.14	0.0285725	80
14.145	0.046854	80
14.15	0.0679112	80
14.155	0.0881908	80
14.16	0.103306	80
14.165	0.111805	80
14.17	0.11052	80
14.175	0.0977247	80
14.18	0.0785236	80
14.185	0.0584599	80
14.19	0.0384869	80
14.195	0.0197135	80
14.2	0.0025469	80
14.205	-0.0154968	80
14.21	-0.0340558	80
14.215	-0.0495704	80
14.22	-0.0616736	80
14.225	-0.0710191	80
14.23	-0.0755719	80
14.235	-0.0755154	80
14.24	-0.0748653	80
14.245	-0.0765367	80
14.25	-0.0830376	80
14.255	-0.0949236	80
14.26	-0.100491	80
14.265	-0.071279	80
14.27	0.0220942	80
14.275	0.194034	80
14.28	0.438578	80
14.285	0.70718	80
14.29	0.917156	80
14.295	1.01077	71.4286
14.3	0.980898	71.4286
14.305	0.853073	71.4286
14.31	0.669496	71.4286
14.315	0.47576	71.4286
14.32	0.304313	71.4286
14.325	0.169527	71.4286
14.33	0.0746719	71.4286
14.335	0.0146907	71.4286
14.34	-0.0212191	71.4286
14.345	-0.0409246	71.4286
14.35	-0.0488898	71.4286
14.355	-0.051809	71.4286
14.36	-0.0546356	71.4286
14.365	-0.0568601	71.4286
14.37	-0.0586323	71.4286
14.375	-0.0612316	71.4286
14.38	-0.0622195	71.4286
14.385	-0.0594193	71.4286
14.39	-0.0553606	71.4286
14.395	-0.050931	71.4286
14.4	-0.0440916	71.4286
14.405	-0.0372196	71.4286
14.41	-0.0335856	71.4286
14.415	-0.0313568	71.4286
14.42	-0.028771	71.4286
14.425	-0.0264935	71.4286
14.43	-0.0231437	71.4286
14.435	-0.0176066	71.4286
14.44	-0.011265	71.4286
14.445	-0.00316303	71.4286
14.45	0.00818232	71.4286
14.455	0.019784	71.4286
14.46	0.0295732	71.4286
14.465	0.0397413	71.4286
14.47	0.051165	71.4286
14.475	0.0639838	71.4286
14.48	0.0816611	71.4286
14.485	0.105977	71.4286
14.49	0.133425	71.4286
14.495	0.161731	71.4286
14.5	0.191184	71.4286
14.505	0.220046	71.4286
14.51	0.248032	71.4286
14.515	0.277033	71.4286
14.52	0.305045	71.4286
14.525	0.328701	71.4286
14.53	0.349011	71.4286
14.535	0.36625	71.4286
14.54	0.377074	71.4286
14.545	0.38028	71.4286
14.55	0.37511	71.4286
14.555	0.35759	71.4286
14.56	0.327608	71.4286
14.565	0.291479	71.4286
14.57	0.253262	71.4286
14.575	0.213791	71.4286
14.58	0.176392	71.4286
14.585	0.142931	71.4286
14.59	0.111677	71.4286
14.595	0.0837481	71.4286
14.6	0.0622043	71.4286
14.605	0.0460097	71.4286
14.61	0.0334086	71.4286
14.615	0.0258454	71.4286
14.62	0.0222531	71.4286
14.625	0.0193118	71.4286
14.63	0.0175995	71.4286
14.635	0.0178378	71.4286
14.64	0.0167353	71.4286
14.645	0.014261	71.4286
14.65	0.0138805	71.4286
14.655	0.0140232	71.4286
14.66	0.0120033	71.4286
14.665	0.0105631	71.4286
14.67	0.0112222	71.4286
14.675	0.0116493	71.4286
14.68	0.0119223	71.4286
14.685	0.013316	71.4286
14.69	0.0137391	71.4286
14.695	0.012326	71.4286
14.7	0.0108633	71.4286
14.705	0.00861049	71.4286
14.71	0.00504967	71.4286
14.715	0.00321872	71.4286
14.72	0.00374964	71.4286
14.725	0.00309871	71.4286
14.73	-0.000152826	71.4286
14.735	-0.00552381	71.4286
14.74	-0.0137138	71.4286
14.745	-0.0222382	71.4286
14.75	-0.0270491	71.4286
14.755	-0.0298258	71.4286
14.76	-0.0329921	71.4286
14.765	-0.0346267	71.4286
14.77	-0.035447	71.4286
14.775	-0.038579	71.4286
14.78	-0.0424039	71.4286
14.785	-0.0444706	71.4286
14.79	-0.0465771	71.4286
14.795	-0.0490196	71.4286
14.8	-0.0495626	71.4286
14.805	-0.0498907	71.4286
14.81	-0.051738	71.4286
14.815	-0.0526934	71.4286
14.82	-0.0533128	71.4286
14.825	-0.0563851	71.4286
14.83	-0.0591273	71.4286
14.835	-0.0589188	71.4286
14.84	-0.0589974	71.4286
14.845	-0.0603995	71.4286
14.85	-0.0608767	71.4286
14.855	-0.0617801	71.4286
14.86	-0.0640223	71.4286
14.865	-0.0652008	71.4286
14.87	-0.0659247	71.4286
14.875	-0.0683513	71.4286
14.88	-0.0704291	71.4286
14.885	-0.0704034	71.4286
14.89	-0.0702551	71.4286
14.895	-0.070001	71.4286
14.9	-0.0687779	71.4286
14.905	-0.069538	71.4286
14.91	-0.0733191	71.4286
14.915	-0.0764484	71.4286
14.92	-0.0778248	71.4286
14.925	-0.0789091	71.4286
14.93	-0.078376	71.4286
14.935	-0.0763327	71.4286
14.94	-0.0763335	71.4286
14.945	-0.0781139	71.4286
14.95	-0.0790108	71.4286
14.955	-0.0793809	71.4286
14.96	-0.0791525	71.4286
14.965	-0.0755045	71.4286
14.97	-0.0671689	71.4286
14.975	-0.0560271	71.4286
14.98	-0.0422937	71.4286
14.985	-0.0253667	71.4286
14.99	-0.0069432	71.4286
14.995	0.0116603	71.4286
15	0.028973	71.4286
15.005	0.0396676	71.4286
15.01	0.0394954	71.4286
15.015	0.0307195	71.4286
15.02	0.0168533	71.4286
15.025	-0.000322084	71.4286
15.03	-0.0182576	71.4286
15.035	-0.0362759	71.4286
15.04	-0.0564566	71.4286
15.045	-0.0774784	71.4286
15.05	-0.0951656	71.4286
15.055	-0.10952	71.4286
15.06	-0.121574	71.4286
15.065	-0.129562	71.4286
15.07	-0.134277	71.4286
15.075	-0.13831	71.4286
15.08	-0.140233	71.4286
15.085	-0.140032	71.4286
15.09	-0.143759	71.4286
15.095	-0.15169	71.4286
15.1	-0.150514	71.4286
15.105	-0.117372	71.4286
15.11	-0.0259088	71.4286
15.115	0.143136	71.4286
15.12	0.38505	71.4286
15.125	0.649656	71.4286
15.13	0.858162	71.4286
15.135	0.953936	70.1754
15.14	0.925558	70.1754
15.145	0.800657	70.1754
15.15	0.624362	70.1754
15.155	0.436524	70.1754
15.16	0.266762	70.1754
15.165	0.133408	70.1754
15.17	0.0388709	70.1754
15.175	-0.0244933	70.1754
15.18	-0.0637206	70.1754
15.185	-0.0855588	70.1754
15.19	-0.0978633	70.1754
15.195	-0.103735	70.1754
15.2	-0.103384	70.1754
15.205	-0.100374	70.1754
15.21	-0.0972858	70.1754
15.215	-0.0921423	70.1754
15.22	-0.0858632	70.1754
15.225	-0.0815814	70.1754
15.23	-0.077908	70.1754
15.235	-0.072997	70.1754
15.24	-0.0685683	70.1754
15.245	-0.0649465	70.1754
15.25	-0.0609216	70.1754
15.255	-0.0583501	70.1754
15.26	-0.0576679	70.1754
15.265	-0.055857	70.1754
15.27	-0.0525653	70.1754
15.275	-0.0489126	70.1754
15.28	-0.0428415	70.1754
15.285	-0.033827	70.1754
15.29	-0.0249006	70.1754
15.295	-0.0158127	70.1754
15.3	-0.00413546	70.1754
15.305	0.00865318	70.1754
15.31	0.021075	70.1754
15.315	0.0354455	70.1754
15.32	0.0529458	70.1754
15.325	0.0727524	70.1754
15.33	0.0963695	70.1754
15.335	0.124838	70.1754
15.34	0.155292	70.1754
15.345	0.186082	70.1754
15.35	0.217772	70.1754
15.355	0.247927	70.1754
15.36	0.274014	70.1754
15.365	0.297218	70.1754
15.37	0.317297	70.1754
15.375	0.332028	70.1754
15.38	0.342829	70.1754
15.385	0.350542	70.1754
15.39	0.351451	70.1754
15.395	0.34385	70.1754
15.4	0.328877	70.1754
15.405	0.305107	70.1754
15.41	0.272052	70.1754
15.415	0.234178	70.1754
15.42	0.195273	70.1754
15.425	0.157103	70.1754
15.43	0.123373	70.1754
15.435	0.0961626	70.1754
15.44	0.0728672	70.1754
15.445	0.0529389	70.1754
15.45	0.0385487	70.1754
15.455	0.0279155	70.1754
15.46	0.0190542	70.1754
15.465	0.0139737	70.1754
15.47	0.0121761	70.1754
15.475	0.0111175	70.1754
15.48	0.0117929	70.1754
15.485	0.0151402	70.1754
15.49	0.0186067	70.1754
15.495	0.0205674	70.1754
15.5	0.0217644	70.1754
15.505	0.0211824	70.1754
15.51	0.0188251	70.1754
15.515	0.0178031	70.1754
15.52	0.0186269	70.1754
15.525	0.0192831	70.1754
15.53	0.0202189	70.1754
15.535	0.0216151	70.1754
15.54	0.021655	70.1754
15.545	0.021199	70.1754
15.55	0.021603	70.1754
15.555	0.0201506	70.1754
15.56	0.0161073	70.1754
15.565	0.013232	70.1754
15.57	0.0110985	70.1754
15.575	0.00621917	70.1754
15.58	-0.00044364	70.1754
15.585	-0.00717344	70.1754
15.59	-0.0150412	70.1754
15.595	-0.0224911	70.1754
15.6	-0.0267452	70.1754
15.605	-0.0296129	70.1754
15.61	-0.0323269	70.1754
15.615	-0.0323789	70.1754
15.62	-0.0303185	70.1754
15.625	-0.0292408	70.1754
15.63	-0.0278203	70.1754
15.635	-0.024474	70.1754
15.64	-0.0218215	70.1754
15.645	-0.0206851	70.1754
15.65	-0.0217156	70.1754
15.655	-0.0290154	70.1754
15.66	-0.042205	70.1754
15.665	-0.0552334	70.1754
15.67	-0.0648695	70.1754
15.675	-0.0721921	70.1754
15.68	-0.0759245	70.1754
15.685	-0.0748625	70.1754
15.69	-0.0720117	70.1754
15.695	-0.0687051	70.1754
15.7	-0.063158	70.1754
15.705	-0.0571535	70.1754
15.71	-0.0534263	70.1754
15.715	-0.0499679	70.1754
15.72	-0.0455292	70.1754
15.725	-0.0424312	70.1754
15.73	-0.0419468	70.1754
15.735	-0.0450375	70.1754
15.74	-0.053336	70.1754
15.745	-0.0637765	70.1754
15.75	-0.0709515	70.1754
15.755	-0.0752526	70.1754
15.76	-0.0794142	70.1754
15.765	-0.082066	70.1754
15.77	-0.082955	70.1754
15.775	-0.0843087	70.1754
15.78	-0.0847362	70.1754
15.785	-0.0826195	70.1754
15.79	-0.0801797	70.1754
15.795	-0.0782104	70.1754
15.8	-0.0751726	70.1754
15.805	-0.0719593	70.1754
15.81	-0.0688625	70.1754
15.815	-0.0637842	70.1754
15.82	-0.0577564	70.1754
15.825	-0.0524114	70.1754
15.83	-0.0449144	70.1754
15.835	-0.0327997	70.1754
15.84	-0.0172215	70.1754
15.845	0.00156034	70.1754
15.85	0.0225866	70.1754
15.855	0.0391178	70.1754
15.86	0.0454231	70.1754
15.865	0.0424296	70.1754
15.87	0.0316922	70.1754
15.875	0.0135924	70.1754
15.88	-0.00770261	70.1754
15.885	-0.0290998	70.1754
15.89	-0.051165	70.1754
15.895	-0.0715653	70.1754
15.9	-0.0864891	70.1754
15.905	-0.0969968	70.1754
15.91	-0.104776	70.1754
15.915	-0.109135	70.1754
15.92	-0.111937	70.1754
15.925	-0.116324	70.1754
15.93	-0.121376	70.1754
15.935	-0.125162	70.1754
15.94	-0.12955	70.1754
15.945	-0.136261	70.1754
15.95	-0.142964	70.1754
15.955	-0.139674	70.1754
15.96	-0.100692	70.1754
15.965	0.00554601	70.1754
15.97	0.193986	70.1754
15.975	0.446451	70.1754
15.98	0.701021	70.1754
15.985	0.879868	70.1754
15.99	0.936577	77.4194
15.995	0.874574	77.4194
16	0.731516	77.4194
16.005	0.551851	77.4194
16.01	0.372378	77.4194
16.015	0.218967	77.4194
16.02	0.102823	77.4194
16.025	0.0220308	77.4194
16.03	-0.0296498	77.4194
16.035	-0.0598067	77.4194
16.04	-0.0775152	77.4194
16.045	-0.0886595	77.4194
16.05	-0.0946553	77.4194
16.055	-0.0976708	77.4194
16.06	-0.0998805	77.4194
16.065	-0.0999332	77.4194
16.07	-0.097951	77.4194
16.075	-0.0964013	77.4194
16.08	-0.0936722	77.4194
16.085	-0.0880286	77.4194
16.09	-0.0827593	77.4194
16.095	-0.0788411	77.4194
16.1	-0.0726841	77.4194
16.105	-0.064667	77.4194
16.11	-0.0579251	77.4194
16.115	-0.0512265	77.4194
16.12	-0.0444831	77.4194
16.125	-0.0404938	77.4194
16.13	-0.0368168	77.4194
16.135	-0.0287855	77.4194
16.14	-0.0171768	77.4194
16.145	-0.00475996	77.4194
16.15	0.00753875	77.4194
16.155	0.0183431	77.4194
16.16	0.02804	77.4194
16.165	0.041346	77.4194
16.17	0.0600454	77.4194
16.175	0.0813767	77.4194
16.18	0.105632	77.4194
16.185	0.133988	77.4194
16.19	0.163391	77.4194
16.195	0.192749	77.4194
16.2	0.224205	77.4194
16.205	0.256338	77.4194
16.21	0.286837	77.4194
16.215	0.316083	77.4194
16.22	0.343068	77.4194
16.225	0.365846	77.4194
16.23	0.385061	77.4194
16.235	0.399898	77.4194
16.24	0.405542	77.4194
16.245	0.399864	77.4194
16.25	0.385116	77.4194
16.255	0.361662	77.4194
16.26	0.33061	77.4194
16.265	0.297404	77.4194
16.27	0.264578	77.4194
16.275	0.230057	77.4194
16.28	0.19443	77.4194
16.285	0.160182	77.4194
16.29	0.128341	77.4194
16.295	0.101648	77.4194
16.3	0.0825217	77.4194
16.305	0.0691573	77.4194
16.31	0.0589506	77.4194
16.315	0.0521772	77.4194
16.32	0.0476298	77.4194
16.325	0.0425206	77.4194
16.33	0.0387085	77.4194
16.335	0.0381542	77.4194
16.34	0.0389084	77.4194
16.345	0.0408257	77.4194
16.35	0.0453079	77.4194
16.355	0.0501707	77.4194
16.36	0.0539172	77.4194
16.365	0.0579802	77.4194
16.37	0.061095	77.4194
16.375	0.0600071	77.4194
16.38	0.0559997	77.4194
16.385	0.0523735	77.4194
16.39	0.0480971	77.4194
16.395	0.0421501	77.4194
16.4	0.0372513	77.4194
16.405	0.0333302	77.4194
16.41	0.0278722	77.4194
16.415	0.0223521	77.4194
16.42	0.0182505	77.4194
16.425	0.014157	77.4194
16.43	0.0109204	77.4194
16.435	0.00966893	77.4194
16.44	0.0077795	77.4194
16.445	0.00473559	77.4194
16.45	0.00267895	77.4194
16.455	7.16334e-05	77.4194
16.46	-0.00535003	77.4194
16.465	-0.0118925	77.4194
16.47	-0.0182557	77.4194
16.475	-0.024915	77.4194
16.48	-0.0294362	77.4194
16.485	-0.0300851	77.4194
16.49	-0.0297179	77.4194
16.495	-0.0295867	77.4194
16.5	-0.0286329	77.4194
16.505	-0.0291191	77.4194
16.51	-0.0330549	77.4194
16.515	-0.037624	77.4194
16.52	-0.0413861	77.4194
16.525	-0.0456162	77.4194
16.53	-0.0487391	77.4194
16.535	-0.0496221	77.4194
16.54	-0.0516532	77.4194
16.545	-0.0559959	77.4194
16.55	-0.0597902	77.4194
16.555	-0.0627369	77.4194
16.56	-0.0651112	77.4194
16.565	-0.0641281	77.4194
16.57	-0.0599673	77.4194
16.575	-0.056924	77.4194
16.58	-0.0558941	77.4194
16.585	-0.0546802	77.4194
16.59	-0.0535821	77.4194
16.595	-0.0514979	77.4194
16.6	-0.044793	77.4194
16.605	-0.0335305	77.4194
16.61	-0.0192691	77.4194
16.615	-0.000721572	77.4194
16.62	0.0211898	77.4194
16.625	0.0417265	77.4194
16.63	0.058451	77.4194
16.635	0.0697373	77.4194
16.64	0.0716259	77.4194
16.645	0.0639128	77.4194
16.65	0.0498827	77.4194
16.655	0.0299716	77.4194
16.66	0.00560962	77.4194
16.665	-0.0179642	77.4194
16.67	-0.0382078	77.4194
16.675	-0.0555346	77.4194
16.68	-0.0680431	77.4194
16.685	-0.0750835	77.4194
16.69	-0.0804253	77.4194
16.695	-0.0857268	77.4194
16.7	-0.0891127	77.4194
16.705	-0.0911708	77.4194
16.71	-0.0932205	77.4194
16.715	-0.0956326	77.4194
16.72	-0.102398	77.4194
16.725	-0.114762	77.4194
16.73	-0.120768	77.4194
16.735	-0.0960313	77.4194
16.74	-0.0136133	77.4194
16.745	0.148523	77.4194
16.75	0.393796	77.4194
16.755	0.675274	77.4194
16.76	0.907316	77.4194
16.765	1.02556	82.7586
16.77	1.01292	82.7586
16.775	0.89063	82.7586
16.78	0.705345	82.7586
16.785	0.506816	82.7586
16.79	0.327851	82.7586
16.795	0.185026	82.7586
16.8	0.0844339	82.7586
16.805	0.0209673	82.7586
16.81	-0.0168933	82.7586
16.815	-0.0389352	82.7586
16.82	-0.0527982	82.7586
16.825	-0.0637767	82.7586
16.83	-0.0715477	82.7586
16.835	-0.0742773	82.7586
16.84	-0.0738488	82.7586
16.845	-0.0713197	82.7586
16.85	-0.0653869	82.7586
16.855	-0.0587926	82.7586
16.86	-0.055838	82.7586
16.865	-0.0553818	82.7586
16.87	-0.0553442	82.7586
16.875	-0.0555441	82.7586
16.88	-0.0536324	82.7586
16.885	-0.0486639	82.7586
16.89	-0.0441428	82.7586
16.895	-0.0411694	82.7586
16.9	-0.0370339	82.7586
16.905	-0.0311961	82.7586
16.91	-0.0243305	82.7586
16.915	-0.0150518	82.7586
16.92	-0.00391347	82.7586
16.925	0.00664585	82.7586
16.93	0.0183265	82.7586
16.935	0.0329247	82.7586
16.94	0.0483514	82.7586
16.945	0.0650772	82.7586
16.95	0.0862347	82.7586
16.955	0.109541	82.7586
16.96	0.13197	82.7586
16.965	0.156445	82.7586
16.97	0.184625	82.7586
16.975	0.214366	82.7586
16.98	0.245589	82.7586
16.985	0.277992	82.7586
16.99	0.307945	82.7586
16.995	0.334696	82.7586
17	0.359882	82.7586
17.005	0.380785	82.7586
17.01	0.39393	82.7586
17.015	0.400039	82.7586
17.02	0.398718	82.7586
17.025	0.388375	82.7586
17.03	0.371459	82.7586
17.035	0.348508	82.7586
17.04	0.316137	82.7586
17.045	0.275832	82.7586
17.05	0.233107	82.7586
17.055	0.190963	82.7586
17.06	0.152024	82.7586
17.065	0.119681	82.7586
17.07	0.0935098	82.7586
17.075	0.0712638	82.7586
17.08	0.0549402	82.7586
17.085	0.0464682	82.7586
17.09	0.0424454	82.7586
17.095	0.0402199	82.7586
17.1	0.0412068	82.7586
17.105	0.0445512	82.7586
17.11	0.0480346	82.7586
17.115	0.0528546	82.7586
17.12	0.0584062	82.7586
17.125	0.0616069	82.7586
17.13	0.0639385	82.7586
17.135	0.0684999	82.7586
17.14	0.0736883	82.7586
17.145	0.0765169	82.7586
17.15	0.0755012	82.7586
17.155	0.0698601	82.7586
17.16	0.0609354	82.7586
17.165	0.0540388	82.7586
17.17	0.0511343	82.7586
17.175	0.0486398	82.7586
17.18	0.0453382	82.7586
17.185	0.0420758	82.7586
17.19	0.0374756	82.7586
17.195	0.0324308	82.7586
17.2	0.0306055	82.7586
17.205	0.0314312	82.7586
17.21	0.0320364	82.7586
17.215	0.0317389	82.7586
17.22	0.0293518	82.7586
17.225	0.0233216	82.7586
17.23	0.0165619	82.7586
17.235	0.0123239	82.7586
17.24	0.00886715	82.7586
17.245	0.00497609	82.7586
17.25	0.00250973	82.7586
17.255	0.000938044	82.7586
17.26	-0.000874963	82.7586
17.265	-0.00128924	82.7586
17.27	-0.000722346	82.7586
17.275	-0.00258819	82.7586
17.28	-0.00589585	82.7586
17.285	-0.00757875	82.7586
17.29	-0.00904353	82.7586
17.295	-0.0103986	82.7586
17.3	-0.00905737	82.7586
17.305	-0.0067478	82.7586
17.31	-0.00557839	82.7586
17.315	-0.00258843	82.7586
17.32	0.00424877	82.7586
17.325	0.0142223	82.7586
17.33	0.0288608	82.7586
17.335	0.0489646	82.7586
17.34	0.0716752	82.7586
17.345	0.0951873	82.7586
17.35	0.119028	82.7586
17.355	0.13784	82.7586
17.36	0.144954	82.7586
17.365	0.139856	82.7586
17.37	0.12362	82.7586
17.375	0.097449	82.7586
17.38	0.0676219	82.7586
17.385	0.0398939	82.7586
17.39	0.014466	82.7586
17.395	-0.00832526	82.7586
17.4	-0.0258875	82.7586
17.405	-0.0387085	82.7586
17.41	-0.0478453	82.7586
17.415	-0.0513348	82.7586
17.42	-0.0503098	82.7586
17.425	-0.0491113	82.7586
17.43	-0.0480423	82.7586
17.435	-0.0463952	82.7586
17.44	-0.0474657	82.7586
17.445	-0.0546846	82.7586
17.45	-0.0657281	82.7586
17.455	-0.0703487	82.7586
17.46	-0.0448967	82.7586
17.465	0.0443881	82.7586
17.47	0.218976	82.7586
17.475	0.47113	82.7586
17.48	0.751554	82.7586
17.485	0.978715	82.7586
17.49	1.08551	73.6196
17.495	1.05605	73.6196
17.5	0.921589	73.6196
17.505	0.730801	73.6196
17.51	0.528819	73.6196
17.515	0.350146	73.6196
17.52	0.211253	73.6196
17.525	0.112328	73.6196
17.53	0.0486204	73.6196
17.535	0.0122764	73.6196
17.54	-0.00808349	73.6196
17.545	-0.0195349	73.6196
17.55	-0.0236014	73.6196
17.555	-0.0239652	73.6196
17.56	-0.0239928	73.6196
17.565	-0.0218354	73.6196
17.57	-0.0174989	73.6196
17.575	-0.0150401	73.6196
17.58	-0.0142349	73.6196
17.585	-0.0121437	73.6196
17.59	-0.00919459	73.6196
17.595	-0.00638434	73.6196
17.6	-0.00319958	73.6196
17.605	-0.000416913	73.6196
17.61	0.000999169	73.6196
17.615	0.00219807	73.6196
17.62	0.0035636	73.6196
17.625	0.00443006	73.6196
17.63	0.00725198	73.6196
17.635	0.0139075	73.6196
17.64	0.0218089	73.6196
17.645	0.030358	73.6196
17.65	0.0423056	73.6196
17.655	0.0568134	73.6196
17.66	0.0710514	73.6196
17.665	0.08577	73.6196
17.67	0.101135	73.6196
17.675	0.115864	73.6196
17.68	0.132421	73.6196
17.685	0.153416	73.6196
17.69	0.177491	73.6196
17.695	0.204117	73.6196
17.7	0.234361	73.6196
17.705	0.265175	73.6196
17.71	0.293244	73.6196
17.715	0.320411	73.6196
17.72	0.347456	73.6196
17.725	0.371439	73.6196
17.73	0.390976	73.6196
17.735	0.404555	73.6196
17.74	0.407707	73.6196
17.745	0.398777	73.6196
17.75	0.38019	73.6196
17.755	0.353106	73.6196
17.76	0.31892	73.6196
17.765	0.281117	73.6196
17.77	0.241387	73.6196
17.775	0.200106	73.6196
17.78	0.161368	73.6196
17.785	0.129262	73.6196
17.79	0.102786	73.6196
17.795	0.0814868	73.6196
17.8	0.0677702	73.6196
17.805	0.0602726	73.6196
17.81	0.0543641	73.6196
17.815	0.0495777	73.6196
17.82	0.0459512	73.6196
17.825	0.0401983	73.6196
17.83	0.0327986	73.6196
17.835	0.0272222	73.6196
17.84	0.024187	73.6196
17.845	0.0237165	73.6196
17.85	0.0267638	73.6196
17.855	0.0311882	73.6196
17.86	0.0342816	73.6196
17.865	0.0374775	73.6196
17.87	0.0411979	73.6196
17.875	0.0426675	73.6196
17.88	0.0423732	73.6196
17.885	0.0429663	73.6196
17.89	0.043134	73.6196
17.895	0.0416072	73.6196
17.9	0.040382	73.6196
17.905	0.0393074	73.6196
17.91	0.0370942	73.6196
17.915	0.0352305	73.6196
17.92	0.0335895	73.6196
17.925	0.0296843	73.6196
17.93	0.0239705	73.6196
17.935	0.0186614	73.6196
17.94	0.0139553	73.6196
17.945	0.0105511	73.6196
17.95	0.00975597	73.6196
17.955	0.00901536	73.6196
17.96	0.00591397	73.6196
17.965	0.00299181	73.6196
17.97	0.00176855	73.6196
17.975	0.000227501	73.6196
17.98	-0.000900702	73.6196
17.985	-9.72869e-06	73.6196
17.99	0.000105499	73.6196
17.995	-0.0016519	73.6196
18	-0.00312039	73.6196
18.005	-0.00510633	73.6196
18.01	-0.0094189	73.6196
18.015	-0.0137238	73.6196
18.02	-0.0159674	73.6196
18.025	-0.0175096	73.6196
18.03	-0.0178338	73.6196
18.035	-0.016331	73.6196
18.04	-0.0159704	73.6196
18.045	-0.0168676	73.6196
18.05	-0.0163733	73.6196
18.055	-0.0164421	73.6196
18.06	-0.0189417	73.6196
18.065	-0.0207755	73.6196
18.07	-0.0208123	73.6196
18.075	-0.0213427	73.6196
18.08	-0.0222014	73.6196
18.085	-0.0230161	73.6196
18.09	-0.0260309	73.6196
18.095	-0.0308141	73.6196
18.1	-0.0342208	73.6196
18.105	-0.0361158	73.6196
18.11	-0.0371521	73.6196
18.115	-0.0350118	73.6196
18.12	-0.0301067	73.6196
18.125	-0.0257726	73.6196
18.13	-0.0208213	73.6196
18.135	-0.0123652	73.6196
18.14	-0.00159684	73.6196
18.145	0.0103344	73.6196
18.15	0.025772	73.6196
18.155	0.0451008	73.6196
18.16	0.0654066	73.6196
18.165	0.084425	73.6196
18.17	0.0990622	73.6196
18.175	0.104216	73.6196
18.18	0.0982297	73.6196
18.185	0.0830405	73.6196
18.19	0.0600871	73.6196
18.195	0.0335774	73.6196
18.2	0.00974559	73.6196
18.205	-0.0107497	73.6196
18.21	-0.0299661	73.6196
18.215	-0.0461828	73.6196
18.22	-0.0583535	73.6196
18.225	-0.0687569	73.6196
18.23	-0.0770076	73.6196
18.235	-0.0810157	73.6196
18.24	-0.0818623	73.6196
18.245	-0.0803595	73.6196
18.25	-0.0767195	73.6196
18.255	-0.0768836	73.6196
18.26	-0.0867125	73.6196
18.265	-0.100215	73.6196
18.27	-0.0997477	73.6196
18.275	-0.0586379	73.6196
18.28	0.0511943	73.6196
18.285	0.243215	73.6196
18.29	0.498216	73.6196
18.295	0.753833	73.6196
18.3	0.933759	73.6196
18.305	0.992176	68.9655
18.31	0.929739	68.9655
18.315	0.783393	68.9655
18.32	0.599921	68.9655
18.325	0.417038	68.9655
18.33	0.260675	68.9655
18.335	0.142203	68.9655
18.34	0.0587316	68.9655
18.345	0.00261543	68.9655
18.35	-0.0332618	68.9655
18.355	-0.0566436	68.9655
18.36	-0.0727547	68.9655
18.365	-0.0817341	68.9655
18.37	-0.0842173	68.9655
18.375	-0.0836214	68.9655
18.38	-0.0814331	68.9655
18.385	-0.0783781	68.9655
18.39	-0.0770555	68.9655
18.395	-0.0771246	68.9655
18.4	-0.0749881	68.9655
18.405	-0.0705505	68.9655
18.41	-0.0654299	68.9655
18.415	-0.0587132	68.9655
18.42	-0.0512299	68.9655
18.425	-0.0456982	68.9655
18.43	-0.0408527	68.9655
18.435	-0.0340731	68.9655
18.44	-0.0263758	68.9655
18.445	-0.0185577	68.9655
18.45	-0.0109248	68.9655
18.455	-0.00592259	68.9655
18.46	-0.00358852	68.9655
18.465	0.00100173	68.9655
18.47	0.00968068	68.9655
18.475	0.0198293	68.9655
18.48	0.0320406	68.9655
18.485	0.0480082	68.9655
18.49	0.06625	68.9655
18.495	0.0872757	68.9655
18.5	0.113638	68.9655
18.505	0.14428	68.9655
18.51	0.176901	68.9655
18.515	0.211381	68.9655
18.52	0.246445	68.9655
18.525	0.278053	68.9655
18.53	0.305015	68.9655
18.535	0.328464	68.9655
18.54	0.346884	68.9655
18.545	0.359444	68.9655
18.55	0.367395	68.9655
18.555	0.368819	68.9655
18.56	0.360792	68.9655
18.565	0.345551	68.9655
18.57	0.325372	68.9655
18.575	0.298833	68.9655
18.58	0.267124	68.9655
18.585	0.233643	68.9655
18.59	0.198911	68.9655
18.595	0.163986	68.9655
18.6	0.132638	68.9655
18.605	0.105685	68.9655
18.61	0.0816041	68.9655
18.615	0.0624029	68.9655
18.62	0.049939	68.9655
18.625	0.0407063	68.9655
18.63	0.032364	68.9655
18.635	0.0260395	68.9655
18.64	0.0205376	68.9655
18.645	0.0152275	68.9655
18.65	0.0120812	68.9655
18.655	0.0103409	68.9655
18.66	0.00846496	68.9655
18.665	0.00899676	68.9655
18.67	0.0131024	68.9655
18.675	0.0179432	68.9655
18.68	0.0230088	68.9655
18.685	0.02928	68.9655
18.69	0.034296	68.9655
18.695	0.0368742	68.9655
18.7	0.0392461	68.9655
18.705	0.0412213	68.9655
18.71	0.0419533	68.9655
18.715	0.0435767	68.9655
18.72	0.0444598	68.9655
18.725	0.0406762	68.9655
18.73	0.0334992	68.9655
18.735	0.0258118	68.9655
18.74	0.016806	68.9655
18.745	0.00687566	68.9655
18.75	-0.00116918	68.9655
18.755	-0.00799621	68.9655
18.76	-0.014998	68.9655
18.765	-0.0191926	68.9655
18.77	-0.0195124	68.9655
18.775	-0.0193493	68.9655
18.78	-0.019652	68.9655
18.785	-0.0196357	68.9655
18.79	-0.0208917	68.9655
18.795	-0.0228739	68.9655
18.8	-0.0223303	68.9655
18.805	-0.0204564	68.9655
18.81	-0.0207022	68.9655
18.815	-0.0234139	68.9655
18.82	-0.0278208	68.9655
18.825	-0.0336927	68.9655
18.83	-0.0385193	68.9655
18.835	-0.0409067	68.9655
18.84	-0.0437437	68.9655
18.845	-0.0477913	68.9655
18.85	-0.0499024	68.9655
18.855	-0.0501695	68.9655
18.86	-0.0508127	68.9655
18.865	-0.0503572	68.9655
18.87	-0.0482843	68.9655
18.875	-0.047932	68.9655
18.88	-0.0499762	68.9655
18.885	-0.0515375	68.9655
18.89	-0.0518884	68.9655
18.895	-0.0513717	68.9655
18.9	-0.0489547	68.9655
18.905	-0.0468444	68.9655
18.91	-0.0483982	68.9655
18.915	-0.0514722	68.9655
18.92	-0.0533436	68.9655
18.925	-0.0558165	68.9655
18.93	-0.059119	68.9655
18.935	-0.0614055	68.9655
18.94	-0.0637676	68.9655
18.945	-0.0661075	68.9655
18.95	-0.0657339	68.9655
18.955	-0.0639499	68.9655
18.96	-0.0636548	68.9655
18.965	-0.0633624	68.9655
18.97	-0.0615803	68.9655
18.975	-0.0598151	68.9655
18.98	-0.0576942	68.9655
18.985	-0.0536157	68.9655
18.99	-0.0504775	68.9655
18.995	-0.0505425	68.9655
19	-0.0505733	68.9655
19.005	-0.04918	68.9655
19.01	-0.0465322	68.9655
19.015	-0.0402134	68.9655
19.02	-0.0299802	68.9655
19.025	-0.0171946	68.9655
19.03	0.000573308	68.9655
19.035	0.0239177	68.9655
19.04	0.0462843	68.9655
19.045	0.061788	68.9655
19.05	0.0687335	68.9655
19.055	0.0649613	68.9655
19.06	0.050467	68.9655
19.065	0.0306851	68.9655
19.07	0.00947095	68.9655
19.075	-0.0125751	68.9655
19.08	-0.0320733	68.9655
19.085	-0.0471095	68.9655
19.09	-0.0612575	68.9655
19.095	-0.0761835	68.9655
19.1	-0.0888359	68.9655
19.105	-0.0986049	68.9655
19.11	-0.107109	68.9655
19.115	-0.112443	68.9655
19.12	-0.113681	68.9655
19.125	-0.114108	68.9655
19.13	-0.115936	68.9655
19.135	-0.118465	68.9655
19.14	-0.117161	68.9655
19.145	-0.0937616	68.9655
19.15	-0.0187158	68.9655
19.155	0.128783	68.9655
19.16	0.350482	68.9655
19.165	0.610854	68.9655
19.17	0.833744	68.9655
19.175	0.951411	67.4157
19.18	0.945223	67.4157
19.185	0.838552	67.4157
19.19	0.671953	67.4157
19.195	0.487527	67.4157
19.2	0.318765	67.4157
19.205	0.181873	67.4157
19.21	0.0806242	67.4157
19.215	0.0147037	67.4157
19.22	-0.0227222	67.4157
19.225	-0.0431942	67.4157
19.23	-0.0537576	67.4157
19.235	-0.0571902	67.4157
19.24	-0.0583815	67.4157
19.245	-0.060645	67.4157
19.25	-0.0611988	67.4157
19.255	-0.058863	67.4157
19.26	-0.0565192	67.4157
19.265	-0.0546766	67.4157
19.27	-0.052567	67.4157
19.275	-0.0515529	67.4157
19.28	-0.0513311	67.4157
19.285	-0.0493129	67.4157
19.29	-0.0459007	67.4157
19.295	-0.0418347	67.4157
19.3	-0.0349069	67.4157
19.305	-0.0261121	67.4157
19.31	-0.018839	67.4157
19.315	-0.0113498	67.4157
19.32	-0.00167552	67.4157
19.325	0.00731341	67.4157
19.33	0.0142611	67.4157
19.335	0.0208476	67.4157
19.34	0.0267676	67.4157
19.345	0.0325061	67.4157
19.35	0.0413999	67.4157
19.355	0.0539502	67.4157
19.36	0.0692328	67.4157
19.365	0.090086	67.4157
19.37	0.117072	67.4157
19.375	0.145852	67.4157
19.38	0.174772	67.4157
19.385	0.205008	67.4157
19.39	0.235033	67.4157
19.395	0.263837	67.4157
19.4	0.293321	67.4157
19.405	0.322472	67.4157
19.41	0.348616	67.4157
19.415	0.372367	67.4157
19.42	0.392408	67.4157
19.425	0.403238	67.4157
19.43	0.403307	67.4157
19.435	0.394629	67.4157
19.44	0.376429	67.4157
19.445	0.349516	67.4157
19.45	0.317964	67.4157
19.455	0.283185	67.4157
19.46	0.246354	67.4157
19.465	0.212149	67.4157
19.47	0.182684	67.4157
19.475	0.155152	67.4157
19.48	0.129684	67.4157
19.485	0.10921	67.4157
19.49	0.0929202	67.4157
19.495	0.0792312	67.4157
19.5	0.0686073	67.4157
19.505	0.0592563	67.4157
19.51	0.0496526	67.4157
19.515	0.0432606	67.4157
19.52	0.0418213	67.4157
19.525	0.0424297	67.4157
19.53	0.0447864	67.4157
19.535	0.0496971	67.4157
19.54	0.0543117	67.4157
19.545	0.0574744	67.4157
19.55	0.0611534	67.4157
19.555	0.0637526	67.4157
19.56	0.0631277	67.4157
19.565	0.0622236	67.4157
19.57	0.062573	67.4157
19.575	0.0619129	67.4157
19.58	0.0603688	67.4157
19.585	0.0591639	67.4157
19.59	0.0577197	67.4157
19.595	0.0559748	67.4157
19.6	0.0543364	67.4157
19.605	0.0512642	67.4157
19.61	0.045798	67.4157
19.615	0.0408727	67.4157
19.62	0.0380302	67.4157
19.625	0.0340244	67.4157
19.63	0.0285621	67.4157
19.635	0.0251112	67.4157
19.64	0.0236676	67.4157
19.645	0.0231817	67.4157
19.65	0.0239395	67.4157
19.655	0.0240257	67.4157
19.66	0.0220168	67.4157
19.665	0.0207556	67.4157
19.67	0.0217763	67.4157
19.675	0.0225457	67.4157
19.68	0.0219483	67.4157
19.685	0.0202612	67.4157
19.69	0.0149845	67.4157
19.695	0.00564076	67.4157
19.7	-0.00347862	67.4157
19.705	-0.0102518	67.4157
19.71	-0.0146504	67.4157
19.715	-0.0147813	67.4157
19.72	-0.0110202	67.4157
19.725	-0.00773623	67.4157
19.73	-0.00634824	67.4157
19.735	-0.00552624	67.4157
19.74	-0.00644725	67.4157
19.745	-0.00895463	67.4157
19.75	-0.0092051	67.4157
19.755	-0.00658095	67.4157
19.76	-0.00434268	67.4157
19.765	-0.00357855	67.4157
19.77	-0.00524607	67.4157
19.775	-0.0111549	67.4157
19.78	-0.0185935	67.4157
19.785	-0.0230633	67.4157
19.79	-0.0247833	67.4157
19.795	-0.0251636	67.4157
19.8	-0.0237849	67.4157
19.805	-0.0222992	67.4157
19.81	-0.0221586	67.4157
19.815	-0.0207919	67.4157
19.82	-0.0179177	67.4157
19.825	-0.0171932	67.4157
19.83	-0.017741	67.4157
19.835	-0.0176587	67.4157
19.84	-0.0200452	67.4157
19.845	-0.0255926	67.4157
19.85	-0.0294048	67.4157
19.855	-0.0294517	67.4157
19.86	-0.0287173	67.4157
19.865	-0.0284372	67.4157
19.87	-0.0292487	67.4157
19.875	-0.0320093	67.4157
19.88	-0.0335833	67.4157
19.885	-0.0309854	67.4157
19.89	-0.0263406	67.4157
19.895	-0.0202627	67.4157
19.9	-0.0103604	67.4157
19.905	0.00207893	67.4157
19.91	0.0161411	67.4157
19.915	0.035193	67.4157
19.92	0.0588624	67.4157
19.925	0.0815038	67.4157
19.93	0.099825	67.4157
19.935	0.110916	67.4157
19.94	0.109242	67.4157
19.945	0.0947721	67.4157
19.95	0.0744643	67.4157
19.955	0.051849	67.4157
19.96	0.0270489	67.4157
19.965	0.00309116	67.4157
19.97	-0.0173443	67.4157
19.975	-0.0352276	67.4157
19.98	-0.0496164	67.4157
19.985	-0.0577944	67.4157
19.99	-0.0615054	67.4157
19.995	-0.0630172	67.4157
20	-0.0609074	67.4157
20.005	-0.0559548	67.4157
20.01	-0.0512009	67.4157
20.015	-0.048079	67.4157
20.02	-0.0493152	67.4157
20.025	-0.0539014	67.4157
20.03	-0.0435191	67.4157
20.035	0.013264	67.4157
20.04	0.138127	67.4157
20.045	0.336975	67.4157
20.05	0.588391	67.4157
20.055	0.825031	67.4157
20.06	0.972379	67.4157
20.065	0.998164	75.9494
20.07	0.91341	75.9494
20.075	0.754174	75.9494
20.08	0.567669	75.9494
20.085	0.394192	75.9494
20.09	0.252531	75.9494
20.095	0.146276	75.9494
20.1	0.0747436	75.9494
20.105	0.0322268	75.9494
20.11	0.00941943	75.9494
20.115	-0.000857084	75.9494
20.12	-0.00428331	75.9494
20.125	-0.00620663	75.9494
20.13	-0.00673837	75.9494
20.135	-0.00457803	75.9494
20.14	-0.00428168	75.9494
20.145	-0.00891399	75.9494
20.15	-0.0149132	75.9494
20.155	-0.0199442	75.9494
20.16	-0.023628	75.9494
20.165	-0.0229454	75.9494
20.17	-0.0176101	75.9494
20.175	-0.0117328	75.9494
20.18	-0.00533584	75.9494
20.185	0.00494082	75.9494
20.19	0.0178842	75.9494
20.195	0.0306598	75.9494
20.2	0.0426039	75.9494
20.205	0.0519445	75.9494
20.21	0.0577215	75.9494
20.215	0.0634525	75.9494
20.22	0.0722688	75.9494
20.225	0.0832716	75.9494
20.23	0.0962281	75.9494
20.235	0.111921	75.9494
20.24	0.128579	75.9494
20.245	0.145527	75.9494
20.25	0.16475	75.9494
20.255	0.185841	75.9494
20.26	0.208038	75.9494
20.265	0.234195	75.9494
20.27	0.26488	75.9494
20.275	0.296454	75.9494
20.28	0.328515	75.9494
20.285	0.362382	75.9494
20.29	0.395026	75.9494
20.295	0.424934	75.9494
20.3	0.453494	75.9494
20.305	0.47661	75.9494
20.31	0.488784	75.9494
20.315	0.4902	75.9494
20.32	0.481665	75.9494
20.325	0.462254	75.9494
20.33	0.434137	75.9494
20.335	0.40215	75.9494
20.34	0.367358	75.9494
20.345	0.329542	75.9494
20.35	0.291963	75.9494
20.355	0.256111	75.9494
20.36	0.220981	75.9494
20.365	0.189328	75.9494
20.37	0.16393	75.9494
20.375	0.142971	75.9494
20.38	0.126002	75.9494
20.385	0.11474	75.9494
20.39	0.107564	75.9494
20.395	0.102329	75.9494
20.4	0.0994526	75.9494
20.405	0.0975669	75.9494
20.41	0.0942664	75.9494
20.415	0.091885	75.9494
20.42	0.0927697	75.9494
20.425	0.0936856	75.9494
20.43	0.0924254	75.9494
20.435	0.0905245	75.9494
20.44	0.0880265	75.9494
20.445	0.0851741	75.9494
20.45	0.084748	75.9494
20.455	0.0863722	75.9494
20.46	0.0871713	75.9494
20.465	0.0875572	75.9494
20.47	0.088325	75.9494
20.475	0.0874264	75.9494
20.48	0.0856288	75.9494
20.485	0.0854995	75.9494
20.49	0.0846985	75.9494
20.495	0.0809841	75.9494
20.5	0.0769399	75.9494
20.505	0.0737368	75.9494
20.51	0.0698102	75.9494
20.515	0.0664009	75.9494
20.52	0.0641421	75.9494
20.525	0.0604088	75.9494
20.53	0.0558665	75.9494
20.535	0.0524176	75.9494
20.54	0.0483066	75.9494
20.545	0.0426261	75.9494
20.55	0.0377204	75.9494
20.555	0.0336751	75.9494
20.56	0.0289588	75.9494
20.565	0.0256714	75.9494
20.57	0.0246207	75.9494
20.575	0.0228104	75.9494
20.58	0.0197812	75.9494
20.585	0.0173903	75.9494
20.59	0.0145301	75.9494
20.595	0.0103677	75.9494
20.6	0.00751467	75.9494
20.605	0.00636013	75.9494
20.61	0.00521072	75.9494
20.615	0.00530663	75.9494
20.62	0.00691802	75.9494
20.625	0.00667008	75.9494
20.63	0.00373597	75.9494
20.635	-0.000225238	75.9494
20.64	-0.00576582	75.9494
20.645	-0.0119017	75.9494
20.65	-0.0149568	75.9494
20.655	-0.0155753	75.9494
20.66	-0.0166201	75.9494
20.665	-0.0170869	75.9494
20.67	-0.0159042	75.9494
20.675	-0.013942	75.9494
20.68	-0.00982829	75.9494
20.685	-0.0027386	75.9494
20.69	0.00445695	75.9494
20.695	0.0106475	75.9494
20.7	0.0196662	75.9494
20.705	0.0340724	75.9494
20.71	0.0523371	75.9494
20.715	0.0732789	75.9494
20.72	0.0939271	75.9494
20.725	0.106949	75.9494
20.73	0.108278	75.9494
20.735	0.0997979	75.9494
20.74	0.0833908	75.9494
20.745	0.061597	75.9494
20.75	0.0387862	75.9494
20.755	0.0165548	75.9494
20.76	-0.00540985	75.9494
20.765	-0.0240137	75.9494
20.77	-0.0372452	75.9494
20.775	-0.0486526	75.9494
20.78	-0.0593741	75.9494
20.785	-0.0666966	75.9494
20.79	-0.0709399	75.9494
20.795	-0.0738337	75.9494
20.8	-0.0749404	75.9494
20.805	-0.076885	75.9494
20.81	-0.0857103	75.9494
20.815	-0.0995564	75.9494
20.82	-0.105764	75.9494
20.825	-0.0817673	75.9494
20.83	0.00251754	75.9494
20.835	0.169083	75.9494
20.84	0.413577	75.9494
20.845	0.688242	75.9494
20.85	0.913546	75.9494
20.855	1.0247	77.4194
20.86	1.00317	77.4194
20.865	0.875959	77.4194
20.87	0.691661	77.4194
20.875	0.494542	77.4194
20.88	0.317056	77.4194
20.885	0.178017	77.4194
20.89	0.0799547	77.4194
20.895	0.0166421	77.4194
20.9	-0.0195106	77.4194
20.905	-0.038698	77.4194
20.91	-0.0506523	77.4194
20.915	-0.0584445	77.4194
20.92	-0.0625817	77.4194
20.925	-0.065532	77.4194
20.93	-0.0666653	77.4194
20.935	-0.0641513	77.4194
20.94	-0.0611673	77.4194
20.945	-0.0597905	77.4194
20.95	-0.0562613	77.4194
20.955	-0.0494647	77.4194
20.96	-0.0428167	77.4194
20.965	-0.0379576	77.4194
20.97	-0.0349886	77.4194
20.975	-0.0342751	77.4194
20.98	-0.0332602	77.4194
20.985	-0.0291836	77.4194
20.99	-0.0237749	77.4194
20.995	-0.0183659	77.4194
21	-0.0112063	77.4194
21.005	-0.00324086	77.4194
21.01	0.00364193	77.4194
21.015	0.011673	77.4194
21.02	0.0224358	77.4194
21.025	0.0344435	77.4194
21.03	0.0491426	77.4194
21.035	0.069428	77.4194
21.04	0.0934373	77.4194
21.045	0.118676	77.4194
21.05	0.146177	77.4194
21.055	0.175499	77.4194
21.06	0.204019	77.4194
21.065	0.232382	77.4194
21.07	0.262038	77.4194
21.075	0.29068	77.4194
21.08	0.31766	77.4194
21.085	0.344663	77.4194
21.09	0.369086	77.4194
21.095	0.387341	77.4194
21.1	0.400271	77.4194
21.105	0.408214	77.4194
21.11	0.408776	77.4194
21.115	0.401208	77.4194
21.12	0.384869	77.4194
21.125	0.357213	77.4194
21.13	0.320265	77.4194
21.135	0.280467	77.4194
21.14	0.241258	77.4194
21.145	0.203869	77.4194
21.15	0.170741	77.4194
21.155	0.14094	77.4194
21.16	0.111716	77.4194
21.165	0.085159	77.4194
21.17	0.0637128	77.4194
21.175	0.0463564	77.4194
21.18	0.0336353	77.4194
21.185	0.0271584	77.4194
21.19	0.0242862	77.4194
21.195	0.0229152	77.4194
21.2	0.025447	77.4194
21.205	0.0316218	77.4194
21.21	0.0370685	77.4194
21.215	0.0407801	77.4194
21.22	0.0436437	77.4194
21.225	0.0442019	77.4194
21.23	0.0434128	77.4194
21.235	0.0441514	77.4194
21.24	0.0447223	77.4194
21.245	0.0423696	77.4194
21.25	0.038802	77.4194
21.255	0.034995	77.4194
21.26	0.0302916	77.4194
21.265	0.0269779	77.4194
21.27	0.0258478	77.4194
21.275	0.0243003	77.4194
21.28	0.0227259	77.4194
21.285	0.0236292	77.4194
21.29	0.0265413	77.4194
21.295	0.0291979	77.4194
21.3	0.0299577	77.4194
21.305	0.0270053	77.4194
21.31	0.0205202	77.4194
21.315	0.0149152	77.4194
21.32	0.0116232	77.4194
21.325	0.00772666	77.4194
21.33	0.00340209	77.4194
21.335	0.000817372	77.4194
21.34	-0.000878893	77.4194
21.345	-0.00265487	77.4194
21.35	-0.00460234	77.4194
21.355	-0.00886901	77.4194
21.36	-0.0164436	77.4194
21.365	-0.0234623	77.4194
21.37	-0.0271495	77.4194
21.375	-0.0288368	77.4194
21.38	-0.027465	77.4194
21.385	-0.0216366	77.4194
21.39	-0.0163539	77.4194
21.395	-0.0157864	77.4194
21.4	-0.0181841	77.4194
21.405	-0.0218914	77.4194
21.41	-0.0256848	77.4194
21.415	-0.0262783	77.4194
21.42	-0.0238539	77.4194
21.425	-0.0231649	77.4194
21.43	-0.0258767	77.4194
21.435	-0.0299009	77.4194
21.44	-0.0352997	77.4194
21.445	-0.041406	77.4194
21.45	-0.0438331	77.4194
21.455	-0.0412471	77.4194
21.46	-0.0360626	77.4194
21.465	-0.026857	77.4194
21.47	-0.0127459	77.4194
21.475	0.00225443	77.4194
21.48	0.0189302	77.4194
21.485	0.0418022	77.4194
21.49	0.0676409	77.4194
21.495	0.0892787	77.4194
21.5	0.103295	77.4194
21.505	0.106893	77.4194
21.51	0.0979792	77.4194
21.515	0.080368	77.4194
21.52	0.0588118	77.4194
21.525	0.0330388	77.4194
21.53	0.00458012	77.4194
21.535	-0.0209217	77.4194
21.54	-0.0418363	77.4194
21.545	-0.0597738	77.4194
21.55	-0.074005	77.4194
21.555	-0.0846742	77.4194
21.56	-0.0930632	77.4194
21.565	-0.0971403	77.4194
21.57	-0.0960502	77.4194
21.575	-0.0937033	77.4194
21.58	-0.0925772	77.4194
21.585	-0.0934367	77.4194
21.59	-0.097536	77.4194
21.595	-0.0972256	77.4194
21.6	-0.0679535	77.4194
21.605	0.0191386	77.4194
21.61	0.182381	77.4194
21.615	0.421241	77.4194
21.62	0.691795	77.4194
21.625	0.911642	77.4194
21.63	1.01668	68.1818
21.635	0.992577	68.1818
21.64	0.863958	68.1818
21.645	0.676928	68.1818
21.65	0.479928	68.1818
21.655	0.305035	68.1818
21.66	0.166824	68.1818
21.665	0.0703797	68.1818
21.67	0.011331	68.1818
21.675	-0.0222086	68.1818
21.68	-0.0408379	68.1818
21.685	-0.051	68.1818
21.69	-0.0586153	68.1818
21.695	-0.0660782	68.1818
21.7	-0.0704929	68.1818
21.705	-0.0714247	68.1818
21.71	-0.0715326	68.1818
21.715	-0.0705903	68.1818
21.72	-0.0682753	68.1818
21.725	-0.0669981	68.1818
21.73	-0.0657377	68.1818
21.735	-0.0620154	68.1818
21.74	-0.0573751	68.1818
21.745	-0.0527256	68.1818
21.75	-0.0456687	68.1818
21.755	-0.0370252	68.1818
21.76	-0.0300741	68.1818
21.765	-0.0240092	68.1818
21.77	-0.0175417	68.1818
21.775	-0.0125315	68.1818
21.78	-0.0089645	68.1818
21.785	-0.00442191	68.1818
21.79	0.000942722	68.1818
21.795	0.00701979	68.1818
21.8	0.016683	68.1818
21.805	0.0304095	68.1818
21.81	0.045603	68.1818
21.815	0.0634608	68.1818
21.82	0.086319	68.1818
21.825	0.112173	68.1818
21.83	0.139894	68.1818
21.835	0.171166	68.1818
21.84	0.205074	68.1818
21.845	0.239698	68.1818
21.85	0.275699	68.1818
21.855	0.310831	68.1818
21.86	0.340285	68.1818
21.865	0.364167	68.1818
21.87	0.383804	68.1818
21.875	0.396854	68.1818
21.88	0.402957	68.1818
21.885	0.403184	68.1818
21.89	0.395027	68.1818
21.895	0.377075	68.1818
21.9	0.351856	68.1818
21.905	0.319363	68.1818
21.91	0.278042	68.1818
21.915	0.232945	68.1818
21.92	0.190085	68.1818
21.925	0.1507	68.1818
21.93	0.117169	68.1818
21.935	0.0924204	68.1818
21.94	0.0733983	68.1818
21.945	0.05602	68.1818
21.95	0.0412039	68.1818
21.955	0.0291868	68.1818
21.96	0.0181165	68.1818
21.965	0.0107353	68.1818
21.97	0.0101563	68.1818
21.975	0.012297	68.1818
21.98	0.0130553	68.1818
21.985	0.0134044	68.1818
21.99	0.0136847	68.1818
21.995	0.0132295	68.1818
22	0.0128277	68.1818
22.005	0.0118125	68.1818
22.01	0.00908631	68.1818
22.015	0.00727266	68.1818
22.02	0.00803089	68.1818
22.025	0.00893276	68.1818
22.03	0.00971461	68.1818
22.035	0.0124217	68.1818
22.04	0.015414	68.1818
22.045	0.0167782	68.1818
22.05	0.0176221	68.1818
22.055	0.01719	68.1818
22.06	0.0136517	68.1818
22.065	0.00977116	68.1818
22.07	0.00774494	68.1818
22.075	0.00396018	68.1818
22.08	-0.00295743	68.1818
22.085	-0.0101117	68.1818
22.09	-0.0170241	68.1818
22.095	-0.0238942	68.1818
22.1	-0.0291393	68.1818
22.105	-0.0327182	68.1818
22.11	-0.0352236	68.1818
22.115	-0.0356254	68.1818
22.12	-0.0348505	68.1818
22.125	-0.0358724	68.1818
22.13	-0.0379401	68.1818
22.135	-0.0388737	68.1818
22.14	-0.040366	68.1818
22.145	-0.0431422	68.1818
22.15	-0.0442974	68.1818
22.155	-0.0437116	68.1818
22.16	-0.0447673	68.1818
22.165	-0.0480802	68.1818
22.17	-0.0521937	68.1818
22.175	-0.057403	68.1818
22.18	-0.062178	68.1818
22.185	-0.0633095	68.1818
22.19	-0.0621927	68.1818
22.195	-0.0621398	68.1818
22.2	-0.0625885	68.1818
22.205	-0.0638122	68.1818
22.21	-0.0675553	68.1818
22.215	-0.0715856	68.1818
22.22	-0.0729291	68.1818
22.225	-0.0733515	68.1818
22.23	-0.0745565	68.1818
22.235	-0.0748919	68.1818
22.24	-0.0749979	68.1818
22.245	-0.0761163	68.1818
22.25	-0.0759881	68.1818
22.255	-0.0740551	68.1818
22.26	-0.0723378	68.1818
22.265	-0.0702455	68.1818
22.27	-0.0680276	68.1818
22.275	-0.0690015	68.1818
22.28	-0.0729529	68.1818
22.285	-0.0766745	68.1818
22.29	-0.0802596	68.1818
22.295	-0.0832194	68.1818
22.3	-0.0826449	68.1818
22.305	-0.080083	68.1818
22.31	-0.0800716	68.1818
22.315	-0.0820005	68.1818
22.32	-0.0835721	68.1818
22.325	-0.0858169	68.1818
22.33	-0.0870958	68.1818
22.335	-0.0832388	68.1818
22.34	-0.0739419	68.1818
22.345	-0.0606224	68.1818
22.35	-0.0444419	68.1818
22.355	-0.0279939	68.1818
22.36	-0.0124161	68.1818
22.365	0.00439957	68.1818
22.37	0.0222633	68.1818
22.375	0.0363283	68.1818
22.38	0.042764	68.1818
22.385	0.0406798	68.1818
22.39	0.0289801	68.1818
22.395	0.00972776	68.1818
22.4	-0.01076	68.1818
22.405	-0.0301704	68.1818
22.41	-0.0504775	68.1818
22.415	-0.0698199	68.1818
22.42	-0.0855333	68.1818
22.425	-0.099142	68.1818
22.43	-0.110523	68.1818
22.435	-0.117506	68.1818
22.44	-0.122249	68.1818
22.445	-0.126947	68.1818
22.45	-0.129851	68.1818
22.455	-0.13192	68.1818
22.46	-0.136882	68.1818
22.465	-0.14522	68.1818
22.47	-0.152464	68.1818
22.475	-0.146233	68.1818
22.48	-0.0996623	68.1818
22.485	0.0159988	68.1818
22.49	0.211705	68.1818
22.495	0.47057	68.1818
22.5	0.734243	68.1818
22.505	0.922525	68.1818
22.51	0.985608	67.0391
22.515	0.924968	67.0391
22.52	0.775503	67.0391
22.525	0.582621	67.0391
22.53	0.389246	67.0391
22.535	0.225436	67.0391
22.54	0.100855	67.0391
22.545	0.0130494	67.0391
22.55	-0.0422282	67.0391
22.555	-0.0723574	67.0391
22.56	-0.0880099	67.0391
22.565	-0.0960993	67.0391
22.57	-0.0993135	67.0391
22.575	-0.101144	67.0391
22.58	-0.102662	67.0391
22.585	-0.101904	67.0391
22.59	-0.0995161	67.0391
22.595	-0.0962649	67.0391
22.6	-0.0905287	67.0391
22.605	-0.0837028	67.0391
22.61	-0.079811	67.0391
22.615	-0.0784847	67.0391
22.62	-0.0770478	67.0391
22.625	-0.0760123	67.0391
22.63	-0.0751065	67.0391
22.635	-0.0717332	67.0391
22.64	-0.067011	67.0391
22.645	-0.0627239	67.0391
22.65	-0.0565661	67.0391
22.655	-0.0478777	67.0391
22.66	-0.0386142	67.0391
22.665	-0.0275454	67.0391
22.67	-0.0141384	67.0391
22.675	-0.0014947	67.0391
22.68	0.0105072	67.0391
22.685	0.0252668	67.0391
22.69	0.0427143	67.0391
22.695	0.0609265	67.0391
22.7	0.0803622	67.0391
22.705	0.100784	67.0391
22.71	0.121571	67.0391
22.715	0.145889	67.0391
22.72	0.175873	67.0391
22.725	0.208803	67.0391
22.73	0.242814	67.0391
22.735	0.277986	67.0391
22.74	0.311226	67.0391
22.745	0.339788	67.0391
22.75	0.364686	67.0391
22.755	0.384786	67.0391
22.76	0.39549	67.0391
22.765	0.395585	67.0391
22.77	0.386134	67.0391
22.775	0.366015	67.0391
22.78	0.336229	67.0391
22.785	0.300723	67.0391
22.79	0.2609	67.0391
22.795	0.218138	67.0391
22.8	0.177158	67.0391
22.805	0.140525	67.0391
22.81	0.108515	67.0391
22.815	0.0826692	67.0391
22.82	0.0622355	67.0391
22.825	0.0437842	67.0391
22.83	0.0278678	67.0391
22.835	0.0178478	67.0391
22.84	0.0127142	67.0391
22.845	0.00947617	67.0391
22.85	0.00872322	67.0391
22.855	0.00985052	67.0391
22.86	0.0101154	67.0391
22.865	0.0115423	67.0391
22.87	0.0158615	67.0391
22.875	0.0183006	67.0391
22.88	0.0165469	67.0391
22.885	0.0144705	67.0391
22.89	0.0133144	67.0391
22.895	0.0114317	67.0391
22.9	0.00973072	67.0391
22.905	0.00850309	67.0391
22.91	0.00548045	67.0391
22.915	0.00186397	67.0391
22.92	0.000487855	67.0391
22.925	0.000198058	67.0391
22.93	0.000458919	67.0391
22.935	0.00323513	67.0391
22.94	0.00720524	67.0391
22.945	0.00984437	67.0391
22.95	0.0116083	67.0391
22.955	0.0120825	67.0391
22.96	0.00865427	67.0391
22.965	0.00219683	67.0391
22.97	-0.00395946	67.0391
22.975	-0.00996499	67.0391
22.98	-0.0164834	67.0391
22.985	-0.0221776	67.0391
22.99	-0.0278513	67.0391
22.995	-0.0340136	67.0391
23	-0.0377841	67.0391
23.005	-0.0390558	67.0391
23.01	-0.0404675	67.0391
23.015	-0.0410195	67.0391
23.02	-0.0398177	67.0391
23.025	-0.0398154	67.0391
23.03	-0.0413115	67.0391
23.035	-0.0418809	67.0391
23.04	-0.0424399	67.0391
23.045	-0.044012	67.0391
23.05	-0.0444952	67.0391
23.055	-0.0442647	67.0391
23.06	-0.0462102	67.0391
23.065	-0.0496937	67.0391
23.07	-0.0527206	67.0391
23.075	-0.0566889	67.0391
23.08	-0.0616265	67.0391
23.085	-0.0651468	67.0391
23.09	-0.0672773	67.0391
23.095	-0.0687406	67.0391
23.1	-0.0682111	67.0391
23.105	-0.0667731	67.0391
23.11	-0.0677493	67.0391
23.115	-0.0699594	67.0391
23.12	-0.070474	67.0391
23.125	-0.0697288	67.0391
23.13	-0.0680254	67.0391
23.135	-0.0655763	67.0391
23.14	-0.0652047	67.0391
23.145	-0.0675181	67.0391
23.15	-0.0691221	67.0391
23.155	-0.0692052	67.0391
23.16	-0.0707786	67.0391
23.165	-0.0741512	67.0391
23.17	-0.0781413	67.0391
23.175	-0.0833637	67.0391
23.18	-0.0873057	67.0391
23.185	-0.0867663	67.0391
23.19	-0.0844215	67.0391
23.195	-0.0833689	67.0391
23.2	-0.0822558	67.0391
23.205	-0.0813117	67.0391
23.21	-0.0824199	67.0391
23.215	-0.0830592	67.0391
23.22	-0.0805836	67.0391
23.225	-0.0774224	67.0391
23.23	-0.0745283	67.0391
23.235	-0.0693254	67.0391
23.24	-0.0614359	67.0391
23.245	-0.0518223	67.0391
23.25	-0.039144	67.0391
23.255	-0.0227247	67.0391
23.26	-0.0035958	67.0391
23.265	0.0172476	67.0391
23.27	0.0364793	67.0391
23.275	0.0471536	67.0391
23.28	0.0460928	67.0391
23.285	0.0357781	67.0391
23.29	0.0185152	67.0391
23.295	-0.00264986	67.0391
23.3	-0.0224864	67.0391
23.305	-0.039338	67.0391
23.31	-0.0555195	67.0391
23.315	-0.0712693	67.0391
23.32	-0.0860274	67.0391
23.325	-0.100819	67.0391
23.33	-0.114224	67.0391
23.335	-0.122504	67.0391
23.34	-0.125986	67.0391
23.345	-0.127357	67.0391
23.35	-0.126109	67.0391
23.355	-0.123767	67.0391
23.36	-0.12594	67.0391
23.365	-0.131779	67.0391
23.37	-0.12973	67.0391
23.375	-0.0982466	67.0391
23.38	-0.00923188	67.0391
23.385	0.157405	67.0391
23.39	0.39511	67.0391
23.395	0.653582	67.0391
23.4	0.856994	67.0391
23.405	0.949749	68.5714
23.41	0.919949	68.5714
23.415	0.795491	68.5714
23.42	0.621274	68.5714
23.425	0.437564	68.5714
23.43	0.273465	68.5714
23.435	0.144852	68.5714
23.44	0.0525846	68.5714
23.445	-0.00948044	68.5714
23.45	-0.046207	68.5714
23.455	-0.0649051	68.5714
23.46	-0.0748704	68.5714
23.465	-0.0800108	68.5714
23.47	-0.0812774	68.5714
23.475	-0.0813563	68.5714
23.48	-0.0808703	68.5714
23.485	-0.0785129	68.5714
23.49	-0.0763564	68.5714
23.495	-0.0757909	68.5714
23.5	-0.0735442	68.5714
23.505	-0.0687531	68.5714
23.51	-0.0646244	68.5714
23.515	-0.061541	68.5714
23.52	-0.0581692	68.5714
23.525	-0.0553998	68.5714
23.53	-0.0515135	68.5714
23.535	-0.0436426	68.5714
23.54	-0.0345968	68.5714
23.545	-0.0275239	68.5714
23.55	-0.0205623	68.5714
23.555	-0.0127744	68.5714
23.56	-0.00517368	68.5714
23.565	0.00473582	68.5714
23.57	0.0187674	68.5714
23.575	0.0332961	68.5714
23.58	0.0464695	68.5714
23.585	0.0607627	68.5714
23.59	0.0770448	68.5714
23.595	0.0954297	68.5714
23.6	0.117943	68.5714
23.605	0.144259	68.5714
23.61	0.172055	68.5714
23.615	0.202604	68.5714
23.62	0.237645	68.5714
23.625	0.273855	68.5714
23.63	0.30794	68.5714
23.635	0.339973	68.5714
23.64	0.368359	68.5714
23.645	0.390269	68.5714
23.65	0.406532	68.5714
23.655	0.417185	68.5714
23.66	0.419605	68.5714
23.665	0.414231	68.5714
23.67	0.401398	68.5714
23.675	0.377983	68.5714
23.68	0.344409	68.5714
23.685	0.306271	68.5714
23.69	0.266394	68.5714
23.695	0.225408	68.5714
23.7	0.186788	68.5714
23.705	0.152428	68.5714
23.71	0.121516	68.5714
23.715	0.0969389	68.5714
23.72	0.0813336	68.5714
23.725	0.0701984	68.5714
23.73	0.0596383	68.5714
23.735	0.0508514	68.5714
23.74	0.0435857	68.5714
23.745	0.037275	68.5714
23.75	0.0344353	68.5714
23.755	0.0350667	68.5714
23.76	0.0360631	68.5714
23.765	0.0376085	68.5714
23.77	0.0407852	68.5714
23.775	0.0431869	68.5714
23.78	0.0438724	68.5714
23.785	0.0453534	68.5714
23.79	0.047238	68.5714
23.795	0.0477456	68.5714
23.8	0.0481983	68.5714
23.805	0.0481675	68.5714
23.81	0.04547	68.5714
23.815	0.0421991	68.5714
23.82	0.0405518	68.5714
23.825	0.0378684	68.5714
23.83	0.0333753	68.5714
23.835	0.0297005	68.5714
23.84	0.0267194	68.5714
23.845	0.0232338	68.5714
23.85	0.0210276	68.5714
23.855	0.0206263	68.5714
23.86	0.0199509	68.5714
23.865	0.0188268	68.5714
23.87	0.0179914	68.5714
23.875	0.015362	68.5714
23.88	0.0105442	68.5714
23.885	0.00605881	68.5714
23.89	0.00195318	68.5714
23.895	-0.00200197	68.5714
23.9	-0.00336555	68.5714
23.905	-0.00329643	68.5714
23.91	-0.00630664	68.5714
23.915	-0.0124406	68.5714
23.92	-0.0188814	68.5714
23.925	-0.0256655	68.5714
23.93	-0.0311887	68.5714
23.935	-0.0326053	68.5714
23.94	-0.0319471	68.5714
23.945	-0.0321306	68.5714
23.95	-0.0316031	68.5714
23.955	-0.0298768	68.5714
23.96	-0.0295974	68.5714
23.965	-0.0308057	68.5714
23.97	-0.0328425	68.5714
23.975	-0.037124	68.5714
23.98	-0.0421136	68.5714
23.985	-0.0445374	68.5714
23.99	-0.045733	68.5714
23.995	-0.0480707	68.5714
24	-0.0497844	68.5714
24.005	-0.0500026	68.5714
24.01	-0.050743	68.5714
24.015	-0.0513625	68.5714
24.02	-0.0502728	68.5714
24.025	-0.0501366	68.5714
24.03	-0.0523347	68.5714
24.035	-0.0540345	68.5714
24.04	-0.0551613	68.5714
24.045	-0.0574184	68.5714
24.05	-0.0586864	68.5714
24.055	-0.0571505	68.5714
24.06	-0.0551645	68.5714
24.065	-0.0533035	68.5714
24.07	-0.0508521	68.5714
24.075	-0.0501117	68.5714
24.08	-0.051148	68.5714
24.085	-0.0515809	68.5714
24.09	-0.0529005	68.5714
24.095	-0.056751	68.5714
24.1	-0.0598747	68.5714
24.105	-0.0602893	68.5714
24.11	-0.0588328	68.5714
24.115	-0.0535779	68.5714
24.12	-0.0435241	68.5714
24.125	-0.0309155	68.5714
24.13	-0.0144181	68.5714
24.135	0.00812803	68.5714
24.14	0.0320745	68.5714
24.145	0.0514123	68.5714
24.15	0.0643194	68.5714
24.155	0.0680527	68.5714
24.16	0.0597257	68.5714
24.165	0.0432943	68.5714
24.17	0.0242064	68.5714
24.175	0.00171348	68.5714
24.18	-0.0232292	68.5714
24.185	-0.0454565	68.5714
24.19	-0.0640285	68.5714
24.195	-0.0805777	68.5714
24.2	-0.0937074	68.5714
24.205	-0.103748	68.5714
24.21	-0.113284	68.5714
24.215	-0.120753	68.5714
24.22	-0.123678	68.5714
24.225	-0.123868	68.5714
24.23	-0.123997	68.5714
24.235	-0.124696	68.5714
24.24	-0.123754	68.5714
24.245	-0.107451	68.5714
24.25	-0.0473201	68.5714
24.255	0.0811452	68.5714
24.26	0.285221	68.5714
24.265	0.541446	68.5714
24.27	0.782015	68.5714
24.275	0.931194	68.5714
24.28	0.955237	79.4702
24.285	0.867615	79.4702
24.29	0.705644	79.4702
24.295	0.514448	79.4702
24.3	0.33505	79.4702
24.305	0.190119	79.4702
24.31	0.0835432	79.4702
24.315	0.0128825	79.4702
24.32	-0.0271182	79.4702
24.325	-0.0464054	79.4702
24.33	-0.0539273	79.4702
24.335	-0.0554285	79.4702
24.34	-0.056805	79.4702
24.345	-0.0608388	79.4702
24.35	-0.0641602	79.4702
24.355	-0.0651	79.4702
24.36	-0.0659654	79.4702
24.365	-0.0662151	79.4702
24.37	-0.0649754	79.4702
24.375	-0.0645909	79.4702
24.38	-0.06498	79.4702
24.385	-0.0624825	79.4702
24.39	-0.0568043	79.4702
24.395	-0.0502623	79.4702
24.4	-0.0424842	79.4702
24.405	-0.0331098	79.4702
24.41	-0.024562	79.4702
24.415	-0.0167554	79.4702
24.42	-0.00773903	79.4702
24.425	0.000582044	79.4702
24.43	0.00813373	79.4702
24.435	0.0191414	79.4702
24.44	0.0338121	79.4702
24.445	0.0492001	79.4702
24.45	0.0651026	79.4702
24.455	0.0808796	79.4702
24.46	0.0948229	79.4702
24.465	0.11	79.4702
24.47	0.130686	79.4702
24.475	0.155796	79.4702
24.48	0.183254	79.4702
24.485	0.214103	79.4702
24.49	0.247836	79.4702
24.495	0.282533	79.4702
24.5	0.318244	79.4702
24.505	0.353703	79.4702
24.51	0.385398	79.4702
24.515	0.413406	79.4702
24.52	0.438687	79.4702
24.525	0.457136	79.4702
24.53	0.465846	79.4702
24.535	0.466151	79.4702
24.54	0.45676	79.4702
24.545	0.435986	79.4702
24.55	0.406088	79.4702
24.555	0.36819	79.4702
